WEAR_PPG_GREEN
ppg|timeOffset|timestamp
1672079|-18000000|1732377600018
1669832|-18000000|1732377600058
1671942|-18000000|1732377600098
1679178|-18000000|1732377600138
1684770|-18000000|1732377600178
1690666|-18000000|1732377600218
1699002|-18000000|1732377600258
1725998|-18000000|1732377600298
1747179|-18000000|1732377600338
1790006|-18000000|1732377600378
1827551|-18000000|1732377600418
1849138|-18000000|1732377600458
1878487|-18000000|1732377600498
1902163|-18000000|1732377600538
1926299|-18000000|1732377600578
1946057|-18000000|1732377600618
1961966|-18000000|1732377600658
1977701|-18000000|1732377600698
1989604|-18000000|1732377600738
1997785|-18000000|1732377600778
2004610|-18000000|1732377600818
2012838|-18000000|1732377600858
2016715|-18000000|1732377600898
2019173|-18000000|1732377600938
2020787|-18000000|1732377600978
2022534|-18000000|1732377601018
2023923|-18000000|1732377601058
2026972|-18000000|1732377601098
2033424|-18000000|1732377601138
2040915|-18000000|1732377601178
2050405|-18000000|1732377601218
2038099|-18000000|1732377601258
1982076|-18000000|1732377601298
1960401|-18000000|1732377601338
1939941|-18000000|1732377601378
1925990|-18000000|1732377601418
1930946|-18000000|1732377601458
1923663|-18000000|1732377601498
1915663|-18000000|1732377601538
1913502|-18000000|1732377601578
1913564|-18000000|1732377601618
1913296|-18000000|1732377601658
1902335|-18000000|1732377601698
1891397|-18000000|1732377601738
1871206|-18000000|1732377601778
1860277|-18000000|1732377601818
1860825|-18000000|1732377601858
1866252|-18000000|1732377601898
1868173|-18000000|1732377601938
1875651|-18000000|1732377601978
1875784|-18000000|1732377602018
1858193|-18000000|1732377602058
1838784|-18000000|1732377602098
1819375|-18000000|1732377602138
1800084|-18000000|1732377602178
1774312|-18000000|1732377602218
1752595|-18000000|1732377602258
1715264|-18000000|1732377602298
1705821|-18000000|1732377602338
1702953|-18000000|1732377602378
1692482|-18000000|1732377602418
1687122|-18000000|1732377602458
1685556|-18000000|1732377602498
1689073|-18000000|1732377602538
1686491|-18000000|1732377602578
1691749|-18000000|1732377602618
1685684|-18000000|1732377602658
1674183|-18000000|1732377602698
1667726|-18000000|1732377602738
1661279|-18000000|1732377602778
1652348|-18000000|1732377602818
1644992|-18000000|1732377602858
1639114|-18000000|1732377602898
1634531|-18000000|1732377602938
1636120|-18000000|1732377602978
1634317|-18000000|1732377603018
1628826|-18000000|1732377603058
1625246|-18000000|1732377603098
1619862|-18000000|1732377603138
1614082|-18000000|1732377603178
1609379|-18000000|1732377603218
1604833|-18000000|1732377603258
1600237|-18000000|1732377603298
1598118|-18000000|1732377603338
1597221|-18000000|1732377603378
1597131|-18000000|1732377603418
1602667|-18000000|1732377603458
1606366|-18000000|1732377603498
1606069|-18000000|1732377603538
1608870|-18000000|1732377603578
1611525|-18000000|1732377603618
1611074|-18000000|1732377603658
1615528|-18000000|1732377603698
1614561|-18000000|1732377603738
1612745|-18000000|1732377603778
1613876|-18000000|1732377603818
1614162|-18000000|1732377603858
1613405|-18000000|1732377603898
1614754|-18000000|1732377603938
1616844|-18000000|1732377603978
1617085|-18000000|1732377604018
1622726|-18000000|1732377604058
1630454|-18000000|1732377604098
1639301|-18000000|1732377604138
1648862|-18000000|1732377604178
1660571|-18000000|1732377604218
1666694|-18000000|1732377604258
1678590|-18000000|1732377604298
1693249|-18000000|1732377604338
1699053|-18000000|1732377604378
1707186|-18000000|1732377604418
1711639|-18000000|1732377604458
1710187|-18000000|1732377604498
1710187|-18000000|1732377604538
1706717|-18000000|1732377604578
1698040|-18000000|1732377604618
1695002|-18000000|1732377604658
1696260|-18000000|1732377604698
1700265|-18000000|1732377604738
1701636|-18000000|1732377604778
1702042|-18000000|1732377604818
1707439|-18000000|1732377604858
1699561|-18000000|1732377604898
1691802|-18000000|1732377604938
1684954|-18000000|1732377604978
1680275|-18000000|1732377605018
1680652|-18000000|1732377605058
1683181|-18000000|1732377605098
1687249|-18000000|1732377605138
1684444|-18000000|1732377605178
1686150|-18000000|1732377605218
1686699|-18000000|1732377605258
1682889|-18000000|1732377605298
1689471|-18000000|1732377605338
1694518|-18000000|1732377605378
1706360|-18000000|1732377605418
1714239|-18000000|1732377605458
1712537|-18000000|1732377605498
1716457|-18000000|1732377605538
1719741|-18000000|1732377605578
1718266|-18000000|1732377605618
1710819|-18000000|1732377605658
1707449|-18000000|1732377605698
1704262|-18000000|1732377605738
1702842|-18000000|1732377605778
1704479|-18000000|1732377605818
1705236|-18000000|1732377605858
1712398|-18000000|1732377605898
1715592|-18000000|1732377605938
1723858|-18000000|1732377605978
1725719|-18000000|1732377606018
1721297|-18000000|1732377606058
1718346|-18000000|1732377606098
1718698|-18000000|1732377606138
1716671|-18000000|1732377606178
1716827|-18000000|1732377606218
1718276|-18000000|1732377606258
1718252|-18000000|1732377606298
1716488|-18000000|1732377606338
1713602|-18000000|1732377606378
1714058|-18000000|1732377606418
1710274|-18000000|1732377606458
1704374|-18000000|1732377606498
1698557|-18000000|1732377606538
1692704|-18000000|1732377606578
1692299|-18000000|1732377606618
1696614|-18000000|1732377606658
1699499|-18000000|1732377606698
1698589|-18000000|1732377606738
1694625|-18000000|1732377606778
1690993|-18000000|1732377606818
1688076|-18000000|1732377606858
1690153|-18000000|1732377606898
1693353|-18000000|1732377606938
1695626|-18000000|1732377606978
1699884|-18000000|1732377607018
1703322|-18000000|1732377607058
1697821|-18000000|1732377607098
1685761|-18000000|1732377607138
1689017|-18000000|1732377607178
1692605|-18000000|1732377607218
1694741|-18000000|1732377607258
1693187|-18000000|1732377607298
1693354|-18000000|1732377607338
1695505|-18000000|1732377607378
1694734|-18000000|1732377607418
1696346|-18000000|1732377607458
1687772|-18000000|1732377607498
1685976|-18000000|1732377607538
1685434|-18000000|1732377607578
1676565|-18000000|1732377607618
1678435|-18000000|1732377607658
1679180|-18000000|1732377607698
1682987|-18000000|1732377607738
1681528|-18000000|1732377607778
1680421|-18000000|1732377607818
1676946|-18000000|1732377607858
1673913|-18000000|1732377607898
1671092|-18000000|1732377607938
1670025|-18000000|1732377607978
1669881|-18000000|1732377608018
1676648|-18000000|1732377608058
1672437|-18000000|1732377608098
1662096|-18000000|1732377608138
1659728|-18000000|1732377608178
1656754|-18000000|1732377608218
1649991|-18000000|1732377608258
1650507|-18000000|1732377608298
1649874|-18000000|1732377608338
1648241|-18000000|1732377608378
1648088|-18000000|1732377608418
1642652|-18000000|1732377608458
1644908|-18000000|1732377608498
1642120|-18000000|1732377608538
1638177|-18000000|1732377608578
1637443|-18000000|1732377608618
1640645|-18000000|1732377608658
1642455|-18000000|1732377608698
1640794|-18000000|1732377608738
1629590|-18000000|1732377608778
1617630|-18000000|1732377608818
1618089|-18000000|1732377608858
1623140|-18000000|1732377608898
1618322|-18000000|1732377608938
1628872|-18000000|1732377608978
1628216|-18000000|1732377609018
1616801|-18000000|1732377609058
1613546|-18000000|1732377609098
1610714|-18000000|1732377609138
1603162|-18000000|1732377609178
1597879|-18000000|1732377609218
1597517|-18000000|1732377609258
1598215|-18000000|1732377609298
1599380|-18000000|1732377609338
1604475|-18000000|1732377609378
1610579|-18000000|1732377609418
1608429|-18000000|1732377609458
1609795|-18000000|1732377609498
1611980|-18000000|1732377609538
1615274|-18000000|1732377609578
1616306|-18000000|1732377609618
1617364|-18000000|1732377609658
1616977|-18000000|1732377609698
1618311|-18000000|1732377609738
1623851|-18000000|1732377609778
1629783|-18000000|1732377609818
1635279|-18000000|1732377609858
1638928|-18000000|1732377609898
1643036|-18000000|1732377609938
1645363|-18000000|1732377609978
1652475|-18000000|1732377610018
1651938|-18000000|1732377610058
1649258|-18000000|1732377610098
1644811|-18000000|1732377610138
1635602|-18000000|1732377610178
1632701|-18000000|1732377610218
1631144|-18000000|1732377610258
1628939|-18000000|1732377610298
1627522|-18000000|1732377610338
1626511|-18000000|1732377610378
1627945|-18000000|1732377610418
1630945|-18000000|1732377610458
1633466|-18000000|1732377610498
1636312|-18000000|1732377610538
1639628|-18000000|1732377610578
1640156|-18000000|1732377610618
1642608|-18000000|1732377610658
1645970|-18000000|1732377610698
1646991|-18000000|1732377610738
1651866|-18000000|1732377610778
1654024|-18000000|1732377610818
1651625|-18000000|1732377610858
1650401|-18000000|1732377610898
1642899|-18000000|1732377610938
1639440|-18000000|1732377610978
1640963|-18000000|1732377611018
1639428|-18000000|1732377611058
1634413|-18000000|1732377611098
1632716|-18000000|1732377611138
1628274|-18000000|1732377611178
1626393|-18000000|1732377611218
1623829|-18000000|1732377611258
1621783|-18000000|1732377611298
1619479|-18000000|1732377611338
1616688|-18000000|1732377611378
1616605|-18000000|1732377611418
1615709|-18000000|1732377611458
1614940|-18000000|1732377611498
1619860|-18000000|1732377611538
1618208|-18000000|1732377611578
1617271|-18000000|1732377611618
1618630|-18000000|1732377611658
1618063|-18000000|1732377611698
1618252|-18000000|1732377611738
1618566|-18000000|1732377611778
1618154|-18000000|1732377611818
1614158|-18000000|1732377611858
1608035|-18000000|1732377611898
1602182|-18000000|1732377611938
1594675|-18000000|1732377611978
1585906|-18000000|1732377612018
1580926|-18000000|1732377612058
1582471|-18000000|1732377612098
1578722|-18000000|1732377612138
1570153|-18000000|1732377612178
1566035|-18000000|1732377612218
1566928|-18000000|1732377612258
1566312|-18000000|1732377612298
1566723|-18000000|1732377612338
1566344|-18000000|1732377612378
1569374|-18000000|1732377612418
1570247|-18000000|1732377612458
1570954|-18000000|1732377612498
1574570|-18000000|1732377612538
1575698|-18000000|1732377612578
1587968|-18000000|1732377612618
1584041|-18000000|1732377612658
1569141|-18000000|1732377612698
1571081|-18000000|1732377612738
1568549|-18000000|1732377612778
1561936|-18000000|1732377612818
1557344|-18000000|1732377612858
1555619|-18000000|1732377612898
1553677|-18000000|1732377612938
1553048|-18000000|1732377612978
1552028|-18000000|1732377613018
1556829|-18000000|1732377613058
1563325|-18000000|1732377613098
1560991|-18000000|1732377613138
1559358|-18000000|1732377613178
1556676|-18000000|1732377613218
1559369|-18000000|1732377613258
1562969|-18000000|1732377613298
1567411|-18000000|1732377613338
1568894|-18000000|1732377613378
1570401|-18000000|1732377613418
1569871|-18000000|1732377613458
1561915|-18000000|1732377613498
1559657|-18000000|1732377613538
1553416|-18000000|1732377613578
1551334|-18000000|1732377613618
1554496|-18000000|1732377613658
1555320|-18000000|1732377613698
1547751|-18000000|1732377613738
1540773|-18000000|1732377613778
1532855|-18000000|1732377613818
1525161|-18000000|1732377613858
1517930|-18000000|1732377613898
1515370|-18000000|1732377613938
1512544|-18000000|1732377613978
1506705|-18000000|1732377614018
1503659|-18000000|1732377614058
1502587|-18000000|1732377614098
1501163|-18000000|1732377614138
1499739|-18000000|1732377614178
1501019|-18000000|1732377614218
1501257|-18000000|1732377614258
1501232|-18000000|1732377614298
1498270|-18000000|1732377614338
1498683|-18000000|1732377614378
1498814|-18000000|1732377614418
1500468|-18000000|1732377614458
1499359|-18000000|1732377614498
1495083|-18000000|1732377614538
1493110|-18000000|1732377614578
1490902|-18000000|1732377614618
1490053|-18000000|1732377614658
1495522|-18000000|1732377614698
1495708|-18000000|1732377614738
1495077|-18000000|1732377614778
1496149|-18000000|1732377614818
1492923|-18000000|1732377614858
1491376|-18000000|1732377614898
1492680|-18000000|1732377614938
1492658|-18000000|1732377614978
1493791|-18000000|1732377615018
1491628|-18000000|1732377615058
1490050|-18000000|1732377615098
1493686|-18000000|1732377615138
1492334|-18000000|1732377615178
1493767|-18000000|1732377615218
1497454|-18000000|1732377615258
1497034|-18000000|1732377615298
1499133|-18000000|1732377615338
1502639|-18000000|1732377615378
1504997|-18000000|1732377615418
1507707|-18000000|1732377615458
1511156|-18000000|1732377615498
1511305|-18000000|1732377615538
1510374|-18000000|1732377615578
1510908|-18000000|1732377615618
1510096|-18000000|1732377615658
1508093|-18000000|1732377615698
1509184|-18000000|1732377615738
1508812|-18000000|1732377615778
1510966|-18000000|1732377615818
1509938|-18000000|1732377615859
1509100|-18000000|1732377615900
1509378|-18000000|1732377615941
1511105|-18000000|1732377615982
1512419|-18000000|1732377616023
1513936|-18000000|1732377616063
1514363|-18000000|1732377616103
1513651|-18000000|1732377616143
1513326|-18000000|1732377616183
1511083|-18000000|1732377616223
1508160|-18000000|1732377616263
1505237|-18000000|1732377616303
1506822|-18000000|1732377616343
1512124|-18000000|1732377616383
1511604|-18000000|1732377616423
1509710|-18000000|1732377616463
1511311|-18000000|1732377616503
1515936|-18000000|1732377616543
1514332|-18000000|1732377616583
1511142|-18000000|1732377616623
1508682|-18000000|1732377616663
1506551|-18000000|1732377616703
1504813|-18000000|1732377616743
1504645|-18000000|1732377616783
1508631|-18000000|1732377616823
1511273|-18000000|1732377616863
1512031|-18000000|1732377616903
1513689|-18000000|1732377616943
1517591|-18000000|1732377616983
1521188|-18000000|1732377617023
1524768|-18000000|1732377617063
1527248|-18000000|1732377617103
1531142|-18000000|1732377617143
1535654|-18000000|1732377617183
1538184|-18000000|1732377617223
1542508|-18000000|1732377617263
1544904|-18000000|1732377617303
1544695|-18000000|1732377617343
1545491|-18000000|1732377617383
1546663|-18000000|1732377617423
1549481|-18000000|1732377617463
1557393|-18000000|1732377617503
1562568|-18000000|1732377617543
1572956|-18000000|1732377617583
1584036|-18000000|1732377617623
1604890|-18000000|1732377617663
1620544|-18000000|1732377617703
1627371|-18000000|1732377617743
1642116|-18000000|1732377617783
1653346|-18000000|1732377617823
1658188|-18000000|1732377617863
1675745|-18000000|1732377617903
1702878|-18000000|1732377617943
1728966|-18000000|1732377617983
1747276|-18000000|1732377618023
1754632|-18000000|1732377618063
1767229|-18000000|1732377618103
1774946|-18000000|1732377618143
1758246|-18000000|1732377618183
1733096|-18000000|1732377618223
1724793|-18000000|1732377618263
1716138|-18000000|1732377618303
1706939|-18000000|1732377618343
1700541|-18000000|1732377618383
1697564|-18000000|1732377618423
1689568|-18000000|1732377618463
1680851|-18000000|1732377618503
1669656|-18000000|1732377618543
1659182|-18000000|1732377618583
1654899|-18000000|1732377618623
1655280|-18000000|1732377618663
1660616|-18000000|1732377618703
1662888|-18000000|1732377618743
1660889|-18000000|1732377618783
1661429|-18000000|1732377618823
1664041|-18000000|1732377618863
1650086|-18000000|1732377618903
1645961|-18000000|1732377618943
1646041|-18000000|1732377618983
1637686|-18000000|1732377619023
1629967|-18000000|1732377619063
1627813|-18000000|1732377619103
1631611|-18000000|1732377619143
1632182|-18000000|1732377619183
1629087|-18000000|1732377619223
1633673|-18000000|1732377619263
1634890|-18000000|1732377619303
1633351|-18000000|1732377619343
1631211|-18000000|1732377619383
1631753|-18000000|1732377619423
1627372|-18000000|1732377619463
1624092|-18000000|1732377619503
1625247|-18000000|1732377619543
1627146|-18000000|1732377619583
1621752|-18000000|1732377619623
1618019|-18000000|1732377619663
1620462|-18000000|1732377619703
1624139|-18000000|1732377619743
1627452|-18000000|1732377619783
1629745|-18000000|1732377619823
1633041|-18000000|1732377619863
1631116|-18000000|1732377619903
1630846|-18000000|1732377619943
1627675|-18000000|1732377619983
1618347|-18000000|1732377620023
1610833|-18000000|1732377620063
1608869|-18000000|1732377620103
1602485|-18000000|1732377620143
1600803|-18000000|1732377620183
1586169|-18000000|1732377620223
1578053|-18000000|1732377620263
1564879|-18000000|1732377620303
1560711|-18000000|1732377620343
1561088|-18000000|1732377620383
1559575|-18000000|1732377620423
1562895|-18000000|1732377620463
1565709|-18000000|1732377620503
1559009|-18000000|1732377620543
1558845|-18000000|1732377620583
1556508|-18000000|1732377620623
1557599|-18000000|1732377620663
1560027|-18000000|1732377620703
1560736|-18000000|1732377620743
1559136|-18000000|1732377620783
1562821|-18000000|1732377620823
1565006|-18000000|1732377620863
1558608|-18000000|1732377620903
1559742|-18000000|1732377620943
1563939|-18000000|1732377620983
1558131|-18000000|1732377621023
1558173|-18000000|1732377621063
1558055|-18000000|1732377621103
1552838|-18000000|1732377621143
1552685|-18000000|1732377621183
1554374|-18000000|1732377621223
1550845|-18000000|1732377621263
1551305|-18000000|1732377621303
1550122|-18000000|1732377621343
1551166|-18000000|1732377621383
1551963|-18000000|1732377621423
1549165|-18000000|1732377621463
1551190|-18000000|1732377621503
1551612|-18000000|1732377621543
1552257|-18000000|1732377621583
1554014|-18000000|1732377621623
1548386|-18000000|1732377621663
1546782|-18000000|1732377621703
1549401|-18000000|1732377621743
1549911|-18000000|1732377621783
1550370|-18000000|1732377621823
1551843|-18000000|1732377621863
1553335|-18000000|1732377621903
1555765|-18000000|1732377621943
1556199|-18000000|1732377621983
1557200|-18000000|1732377622023
1561260|-18000000|1732377622063
1562163|-18000000|1732377622103
1565139|-18000000|1732377622143
1570532|-18000000|1732377622183
1575984|-18000000|1732377622223
1573433|-18000000|1732377622263
1572872|-18000000|1732377622303
1565068|-18000000|1732377622343
1556622|-18000000|1732377622383
1551169|-18000000|1732377622423
1549888|-18000000|1732377622463
1540909|-18000000|1732377622503
1536096|-18000000|1732377622543
1539208|-18000000|1732377622583
1533289|-18000000|1732377622623
1528623|-18000000|1732377622663
1530851|-18000000|1732377622703
1535333|-18000000|1732377622743
1544250|-18000000|1732377622783
1550815|-18000000|1732377622823
1553250|-18000000|1732377622863
1556377|-18000000|1732377622903
1559611|-18000000|1732377622943
1562048|-18000000|1732377622983
1569594|-18000000|1732377623023
1583317|-18000000|1732377623063
1602998|-18000000|1732377623103
1616035|-18000000|1732377623143
1622484|-18000000|1732377623183
1627431|-18000000|1732377623223
1632268|-18000000|1732377623263
1641602|-18000000|1732377623303
1648801|-18000000|1732377623343
1650493|-18000000|1732377623383
1651329|-18000000|1732377623423
1651294|-18000000|1732377623463
1651139|-18000000|1732377623503
1653709|-18000000|1732377623543
1654864|-18000000|1732377623583
1653117|-18000000|1732377623623
1648762|-18000000|1732377623663
1646785|-18000000|1732377623703
1644859|-18000000|1732377623743
1645762|-18000000|1732377623783
1648934|-18000000|1732377623823
1651816|-18000000|1732377623863
1661924|-18000000|1732377623903
1684055|-18000000|1732377623943
1719128|-18000000|1732377623983
1726412|-18000000|1732377624023
1723166|-18000000|1732377624063
1722226|-18000000|1732377624103
1738075|-18000000|1732377624143
1746075|-18000000|1732377624183
1755156|-18000000|1732377624223
1767041|-18000000|1732377624263
1791411|-18000000|1732377624303
1821522|-18000000|1732377624343
1856158|-18000000|1732377624383
1869359|-18000000|1732377624423
1871795|-18000000|1732377624463
1880971|-18000000|1732377624503
1877422|-18000000|1732377624543
1888149|-18000000|1732377624583
1899303|-18000000|1732377624623
1904276|-18000000|1732377624663
1894026|-18000000|1732377624703
1901671|-18000000|1732377624743
1890949|-18000000|1732377624783
1881054|-18000000|1732377624823
1856641|-18000000|1732377624863
1815137|-18000000|1732377624903
1823551|-18000000|1732377624943
1840922|-18000000|1732377624983
1848335|-18000000|1732377625023
1840166|-18000000|1732377625063
1844045|-18000000|1732377625103
1857018|-18000000|1732377625143
1867010|-18000000|1732377625183
1865292|-18000000|1732377625223
1885382|-18000000|1732377625263
1906728|-18000000|1732377625303
1925401|-18000000|1732377625343
1936095|-18000000|1732377625383
1934983|-18000000|1732377625423
1947884|-18000000|1732377625463
1969180|-18000000|1732377625503
1982231|-18000000|1732377625543
1996735|-18000000|1732377625583
1976207|-18000000|1732377625623
1966377|-18000000|1732377625663
1961297|-18000000|1732377625703
1966000|-18000000|1732377625743
1974843|-18000000|1732377625783
1995196|-18000000|1732377625823
2012452|-18000000|1732377625863
2026437|-18000000|1732377625903
2043602|-18000000|1732377625943
2046731|-18000000|1732377625983
2052411|-18000000|1732377626023
2060128|-18000000|1732377626063
2056821|-18000000|1732377626103
2055728|-18000000|1732377626143
2060577|-18000000|1732377626183
2062040|-18000000|1732377626223
2057167|-18000000|1732377626263
2050101|-18000000|1732377626303
2046663|-18000000|1732377626343
2043223|-18000000|1732377626383
2040259|-18000000|1732377626423
2034809|-18000000|1732377626463
2031353|-18000000|1732377626503
2037277|-18000000|1732377626543
2044776|-18000000|1732377626583
2053953|-18000000|1732377626623
2068320|-18000000|1732377626663
2081560|-18000000|1732377626703
2086741|-18000000|1732377626743
2084966|-18000000|1732377626783
2088802|-18000000|1732377626823
2101872|-18000000|1732377626863
2111250|-18000000|1732377626903
2102683|-18000000|1732377626943
2081660|-18000000|1732377626983
2070042|-18000000|1732377627023
2065021|-18000000|1732377627063
2058929|-18000000|1732377627103
2044870|-18000000|1732377627143
2022415|-18000000|1732377627183
1980674|-18000000|1732377627223
1946490|-18000000|1732377627263
1913095|-18000000|1732377627303
1892931|-18000000|1732377627343
1881945|-18000000|1732377627383
1875818|-18000000|1732377627423
1880095|-18000000|1732377627463
1884234|-18000000|1732377627503
1903584|-18000000|1732377627543
1919810|-18000000|1732377627583
1936532|-18000000|1732377627623
1955439|-18000000|1732377627663
1951634|-18000000|1732377627703
1965865|-18000000|1732377627743
1986250|-18000000|1732377627783
2006691|-18000000|1732377627823
2034624|-18000000|1732377627863
2061825|-18000000|1732377627903
2095932|-18000000|1732377627943
2113149|-18000000|1732377627984
2111490|-18000000|1732377628025
2110738|-18000000|1732377628064
2097404|-18000000|1732377628103
2095765|-18000000|1732377628143
2101694|-18000000|1732377628183
2108051|-18000000|1732377628223
2115970|-18000000|1732377628263
2124907|-18000000|1732377628303
2133721|-18000000|1732377628343
2137856|-18000000|1732377628383
2140526|-18000000|1732377628423
2142727|-18000000|1732377628463
2145805|-18000000|1732377628503
2146740|-18000000|1732377628543
2148189|-18000000|1732377628583
2149408|-18000000|1732377628623
2149594|-18000000|1732377628663
2150224|-18000000|1732377628703
2149161|-18000000|1732377628743
2147576|-18000000|1732377628783
2142279|-18000000|1732377628823
2133235|-18000000|1732377628863
2107438|-18000000|1732377628903
2057395|-18000000|1732377628943
2021093|-18000000|1732377628983
2016582|-18000000|1732377629023
1994653|-18000000|1732377629063
1979515|-18000000|1732377629103
1980035|-18000000|1732377629143
1982369|-18000000|1732377629183
1981874|-18000000|1732377629223
1975345|-18000000|1732377629263
1959482|-18000000|1732377629303
1945437|-18000000|1732377629343
1938401|-18000000|1732377629383
1937327|-18000000|1732377629423
1937121|-18000000|1732377629463
1920613|-18000000|1732377629503
1918007|-18000000|1732377629543
1915288|-18000000|1732377629583
1909494|-18000000|1732377629623
1909679|-18000000|1732377629663
1925208|-18000000|1732377629703
1949511|-18000000|1732377629743
1955603|-18000000|1732377629783
1960959|-18000000|1732377629823
1963690|-18000000|1732377629863
1959911|-18000000|1732377629903
1952743|-18000000|1732377629943
1951914|-18000000|1732377629983
1948438|-18000000|1732377630023
1943339|-18000000|1732377630063
1937108|-18000000|1732377630103
1937245|-18000000|1732377630143
1945334|-18000000|1732377630183
1948393|-18000000|1732377630223
1944249|-18000000|1732377630263
1939641|-18000000|1732377630303
1933038|-18000000|1732377630343
1923987|-18000000|1732377630383
1929427|-18000000|1732377630423
1935688|-18000000|1732377630463
1931137|-18000000|1732377630503
1921274|-18000000|1732377630543
1913850|-18000000|1732377630583
1910885|-18000000|1732377630623
1921635|-18000000|1732377630663
1921959|-18000000|1732377630703
1913628|-18000000|1732377630743
1907469|-18000000|1732377630783
1903140|-18000000|1732377630823
1903708|-18000000|1732377630863
1905999|-18000000|1732377630903
1918140|-18000000|1732377630943
1951600|-18000000|1732377630983
2004569|-18000000|1732377631023
2020709|-18000000|1732377631063
2020338|-18000000|1732377631103
2009787|-18000000|1732377631143
1995981|-18000000|1732377631183
2002142|-18000000|1732377631223
2014223|-18000000|1732377631263
2015148|-18000000|1732377631303
2013984|-18000000|1732377631343
2017704|-18000000|1732377631383
2016727|-18000000|1732377631423
2009548|-18000000|1732377631463
2011573|-18000000|1732377631503
2019846|-18000000|1732377631543
2023044|-18000000|1732377631583
2031180|-18000000|1732377631623
2047200|-18000000|1732377631663
2049114|-18000000|1732377631703
2037019|-18000000|1732377631743
2019194|-18000000|1732377631783
1986639|-18000000|1732377631823
1948383|-18000000|1732377631863
1935417|-18000000|1732377631903
1935853|-18000000|1732377631943
1940629|-18000000|1732377631983
1948360|-18000000|1732377632023
1957518|-18000000|1732377632063
1952436|-18000000|1732377632103
1946536|-18000000|1732377632143
1956176|-18000000|1732377632183
1973852|-18000000|1732377632223
1989497|-18000000|1732377632263
2003936|-18000000|1732377632303
2011095|-18000000|1732377632343
2012496|-18000000|1732377632383
2016101|-18000000|1732377632423
2019837|-18000000|1732377632463
2015333|-18000000|1732377632503
2011801|-18000000|1732377632543
2014494|-18000000|1732377632583
2004815|-18000000|1732377632623
2002857|-18000000|1732377632663
2002327|-18000000|1732377632703
2000456|-18000000|1732377632743
2008323|-18000000|1732377632783
1998183|-18000000|1732377632823
1982337|-18000000|1732377632863
1980546|-18000000|1732377632903
1981937|-18000000|1732377632943
1986888|-18000000|1732377632983
1988616|-18000000|1732377633023
1990939|-18000000|1732377633063
1973245|-18000000|1732377633103
1941604|-18000000|1732377633143
1910913|-18000000|1732377633183
1872602|-18000000|1732377633223
1855507|-18000000|1732377633263
1829265|-18000000|1732377633303
1817095|-18000000|1732377633343
1807803|-18000000|1732377633383
1811961|-18000000|1732377633423
1820485|-18000000|1732377633463
1808977|-18000000|1732377633503
1810412|-18000000|1732377633543
1818621|-18000000|1732377633583
1813561|-18000000|1732377633623
1808055|-18000000|1732377633663
1800616|-18000000|1732377633703
1782746|-18000000|1732377633743
1773214|-18000000|1732377633783
1773973|-18000000|1732377633823
1778967|-18000000|1732377633863
1767628|-18000000|1732377633903
1763662|-18000000|1732377633943
1767403|-18000000|1732377633983
1770733|-18000000|1732377634023
1765952|-18000000|1732377634063
1763435|-18000000|1732377634103
1762927|-18000000|1732377634143
1760316|-18000000|1732377634183
1758557|-18000000|1732377634223
1758387|-18000000|1732377634263
1756626|-18000000|1732377634303
1755645|-18000000|1732377634343
1754607|-18000000|1732377634383
1754432|-18000000|1732377634423
1755065|-18000000|1732377634463
1754661|-18000000|1732377634503
1753587|-18000000|1732377634543
1753668|-18000000|1732377634583
1753173|-18000000|1732377634623
1753256|-18000000|1732377634663
1755457|-18000000|1732377634703
1755069|-18000000|1732377634743
1753887|-18000000|1732377634783
1754703|-18000000|1732377634823
1757007|-18000000|1732377634863
1754151|-18000000|1732377634903
1750426|-18000000|1732377634943
1748027|-18000000|1732377634983
1740828|-18000000|1732377635023
1740467|-18000000|1732377635063
1740400|-18000000|1732377635103
1734625|-18000000|1732377635143
1732748|-18000000|1732377635183
1733228|-18000000|1732377635223
1738939|-18000000|1732377635263
1748885|-18000000|1732377635303
1775525|-18000000|1732377635343
1800166|-18000000|1732377635383
1825967|-18000000|1732377635423
1838623|-18000000|1732377635463
1848091|-18000000|1732377635503
1856162|-18000000|1732377635543
1854393|-18000000|1732377635583
1860773|-18000000|1732377635623
1871679|-18000000|1732377635663
1881467|-18000000|1732377635703
1885033|-18000000|1732377635743
1888628|-18000000|1732377635783
1893304|-18000000|1732377635823
1901006|-18000000|1732377635863
1905850|-18000000|1732377635903
1911455|-18000000|1732377635943
1916365|-18000000|1732377635983
1923233|-18000000|1732377636023
1934684|-18000000|1732377636063
1944351|-18000000|1732377636103
1957014|-18000000|1732377636143
1981558|-18000000|1732377636183
2004361|-18000000|1732377636223
2022353|-18000000|1732377636263
2030110|-18000000|1732377636303
2030642|-18000000|1732377636343
2030276|-18000000|1732377636383
2022231|-18000000|1732377636423
2006109|-18000000|1732377636463
1975588|-18000000|1732377636503
1962407|-18000000|1732377636543
1951118|-18000000|1732377636583
1940898|-18000000|1732377636623
1939694|-18000000|1732377636663
1938729|-18000000|1732377636703
1933688|-18000000|1732377636743
1930654|-18000000|1732377636783
1928006|-18000000|1732377636823
1924411|-18000000|1732377636863
1919910|-18000000|1732377636903
1915740|-18000000|1732377636943
1910663|-18000000|1732377636983
1908653|-18000000|1732377637023
1907541|-18000000|1732377637063
1906580|-18000000|1732377637103
1906041|-18000000|1732377637143
1908104|-18000000|1732377637183
1910577|-18000000|1732377637223
1913271|-18000000|1732377637263
1915324|-18000000|1732377637303
1916235|-18000000|1732377637343
1915528|-18000000|1732377637383
1915005|-18000000|1732377637423
1915149|-18000000|1732377637463
1915708|-18000000|1732377637503
1916105|-18000000|1732377637543
1915613|-18000000|1732377637583
1914962|-18000000|1732377637623
1914540|-18000000|1732377637663
1913195|-18000000|1732377637703
1910282|-18000000|1732377637743
1907672|-18000000|1732377637783
1906269|-18000000|1732377637823
1905055|-18000000|1732377637863
1901748|-18000000|1732377637903
1899141|-18000000|1732377637943
1900179|-18000000|1732377637983
1897542|-18000000|1732377638023
1893829|-18000000|1732377638063
1891446|-18000000|1732377638103
1891121|-18000000|1732377638143
1893797|-18000000|1732377638183
1897602|-18000000|1732377638223
1900426|-18000000|1732377638263
1901448|-18000000|1732377638303
1902078|-18000000|1732377638343
1902799|-18000000|1732377638383
1903315|-18000000|1732377638423
1905463|-18000000|1732377638463
1907338|-18000000|1732377638503
1902851|-18000000|1732377638543
1899018|-18000000|1732377638583
1891048|-18000000|1732377638623
1885746|-18000000|1732377638663
1888020|-18000000|1732377638703
1893164|-18000000|1732377638743
1894972|-18000000|1732377638783
1894092|-18000000|1732377638823
1891337|-18000000|1732377638863
1883277|-18000000|1732377638903
1878234|-18000000|1732377638943
1875114|-18000000|1732377638983
1872231|-18000000|1732377639023
1869316|-18000000|1732377639063
1867078|-18000000|1732377639103
1863650|-18000000|1732377639143
1860064|-18000000|1732377639183
1853782|-18000000|1732377639223
1851129|-18000000|1732377639263
1849634|-18000000|1732377639303
1844003|-18000000|1732377639343
1842466|-18000000|1732377639383
1841277|-18000000|1732377639423
1837154|-18000000|1732377639463
1835045|-18000000|1732377639503
1835295|-18000000|1732377639543
1838648|-18000000|1732377639583
1841295|-18000000|1732377639623
1841506|-18000000|1732377639663
1841129|-18000000|1732377639703
1841901|-18000000|1732377639743
1845458|-18000000|1732377639783
1849546|-18000000|1732377639823
1856199|-18000000|1732377639863
1862764|-18000000|1732377639903
1867132|-18000000|1732377639943
1873062|-18000000|1732377639983
1879052|-18000000|1732377640023
1877557|-18000000|1732377640062
1878155|-18000000|1732377640101
1884866|-18000000|1732377640140
1886010|-18000000|1732377640179
1885586|-18000000|1732377640218
1890629|-18000000|1732377640257
1889279|-18000000|1732377640296
1889425|-18000000|1732377640335
1901084|-18000000|1732377640374
1909391|-18000000|1732377640414
1909072|-18000000|1732377640454
1914051|-18000000|1732377640494
1915434|-18000000|1732377640534
1910590|-18000000|1732377640574
1907562|-18000000|1732377640614
1903482|-18000000|1732377640654
1897990|-18000000|1732377640694
1898846|-18000000|1732377640734
1899161|-18000000|1732377640774
1899778|-18000000|1732377640814
1916739|-18000000|1732377640854
1925059|-18000000|1732377640894
1935556|-18000000|1732377640934
1942384|-18000000|1732377640974
1946454|-18000000|1732377641014
1960408|-18000000|1732377641054
1986094|-18000000|1732377641094
1988261|-18000000|1732377641134
1989154|-18000000|1732377641174
2014351|-18000000|1732377641214
2046243|-18000000|1732377641254
2075176|-18000000|1732377641294
2103707|-18000000|1732377641334
2120597|-18000000|1732377641374
2128408|-18000000|1732377641414
2129236|-18000000|1732377641454
2125319|-18000000|1732377641494
2119039|-18000000|1732377641534
2106877|-18000000|1732377641574
2099796|-18000000|1732377641614
2106782|-18000000|1732377641654
2110812|-18000000|1732377641694
2108987|-18000000|1732377641734
2103643|-18000000|1732377641774
2101969|-18000000|1732377641814
2106917|-18000000|1732377641854
2110140|-18000000|1732377641894
2119786|-18000000|1732377641934
2130715|-18000000|1732377641974
2134001|-18000000|1732377642014
2137821|-18000000|1732377642054
2144138|-18000000|1732377642094
2146356|-18000000|1732377642134
2146972|-18000000|1732377642174
2151803|-18000000|1732377642214
2151637|-18000000|1732377642254
2151453|-18000000|1732377642294
2144034|-18000000|1732377642334
2130711|-18000000|1732377642374
2117994|-18000000|1732377642414
2106811|-18000000|1732377642454
2100167|-18000000|1732377642494
2105117|-18000000|1732377642534
2111074|-18000000|1732377642574
2107540|-18000000|1732377642614
2102371|-18000000|1732377642654
2092881|-18000000|1732377642694
2083829|-18000000|1732377642734
2066359|-18000000|1732377642774
2044995|-18000000|1732377642814
2032400|-18000000|1732377642854
2025503|-18000000|1732377642894
2019134|-18000000|1732377642934
2012949|-18000000|1732377642974
2008209|-18000000|1732377643014
1997872|-18000000|1732377643054
1989851|-18000000|1732377643094
1985725|-18000000|1732377643134
1980495|-18000000|1732377643174
1975764|-18000000|1732377643214
1970612|-18000000|1732377643254
1962349|-18000000|1732377643294
1955677|-18000000|1732377643334
1950771|-18000000|1732377643374
1945558|-18000000|1732377643414
1943673|-18000000|1732377643454
1941651|-18000000|1732377643494
1937478|-18000000|1732377643534
1936229|-18000000|1732377643574
1933858|-18000000|1732377643614
1929768|-18000000|1732377643654
1927897|-18000000|1732377643694
1925048|-18000000|1732377643734
1923100|-18000000|1732377643774
1919003|-18000000|1732377643814
1911846|-18000000|1732377643854
1903227|-18000000|1732377643894
1895095|-18000000|1732377643934
1886400|-18000000|1732377643974
1881423|-18000000|1732377644014
1881254|-18000000|1732377644054
1880611|-18000000|1732377644094
1881050|-18000000|1732377644134
1885967|-18000000|1732377644174
1889948|-18000000|1732377644214
1893550|-18000000|1732377644254
1896404|-18000000|1732377644294
1889872|-18000000|1732377644334
1879901|-18000000|1732377644374
1872705|-18000000|1732377644414
1867357|-18000000|1732377644454
1858097|-18000000|1732377644494
1835246|-18000000|1732377644534
1825527|-18000000|1732377644574
1818439|-18000000|1732377644614
1808909|-18000000|1732377644654
1797323|-18000000|1732377644694
1788254|-18000000|1732377644734
1780864|-18000000|1732377644774
1774506|-18000000|1732377644814
1771178|-18000000|1732377644854
1769507|-18000000|1732377644894
1763778|-18000000|1732377644934
1762715|-18000000|1732377644974
1763509|-18000000|1732377645014
1761072|-18000000|1732377645054
1756889|-18000000|1732377645094
1757052|-18000000|1732377645134
1757399|-18000000|1732377645174
1754877|-18000000|1732377645214
1753980|-18000000|1732377645254
1752025|-18000000|1732377645294
1752619|-18000000|1732377645334
1752881|-18000000|1732377645374
1749922|-18000000|1732377645414
1747306|-18000000|1732377645454
1746347|-18000000|1732377645494
1751111|-18000000|1732377645534
1752880|-18000000|1732377645574
1745929|-18000000|1732377645614
1743885|-18000000|1732377645654
1738436|-18000000|1732377645694
1725403|-18000000|1732377645734
1715499|-18000000|1732377645774
1718137|-18000000|1732377645814
1736003|-18000000|1732377645854
1777635|-18000000|1732377645894
1807125|-18000000|1732377645934
1820512|-18000000|1732377645974
1819930|-18000000|1732377646014
1820537|-18000000|1732377646054
1822345|-18000000|1732377646094
1819118|-18000000|1732377646134
1824435|-18000000|1732377646174
1831520|-18000000|1732377646214
1833522|-18000000|1732377646254
1839365|-18000000|1732377646294
1849032|-18000000|1732377646334
1857636|-18000000|1732377646374
1864956|-18000000|1732377646414
1878436|-18000000|1732377646454
1893415|-18000000|1732377646494
1906132|-18000000|1732377646534
1909919|-18000000|1732377646574
1907630|-18000000|1732377646614
1903417|-18000000|1732377646654
1901023|-18000000|1732377646694
1900425|-18000000|1732377646734
1899479|-18000000|1732377646774
1900472|-18000000|1732377646814
1900429|-18000000|1732377646854
1903645|-18000000|1732377646894
1906155|-18000000|1732377646934
1908628|-18000000|1732377646974
1911464|-18000000|1732377647014
1916066|-18000000|1732377647054
1917544|-18000000|1732377647094
1918491|-18000000|1732377647134
1920469|-18000000|1732377647174
1922142|-18000000|1732377647214
1921524|-18000000|1732377647254
1920281|-18000000|1732377647294
1918345|-18000000|1732377647334
1910870|-18000000|1732377647374
1900900|-18000000|1732377647414
1899176|-18000000|1732377647454
1896391|-18000000|1732377647494
1895868|-18000000|1732377647534
1908935|-18000000|1732377647574
1920135|-18000000|1732377647614
1928261|-18000000|1732377647654
1942628|-18000000|1732377647694
1958882|-18000000|1732377647734
1980751|-18000000|1732377647774
2010423|-18000000|1732377647814
2027946|-18000000|1732377647854
2037318|-18000000|1732377647894
2047455|-18000000|1732377647934
2061775|-18000000|1732377647974
2066110|-18000000|1732377648014
2074887|-18000000|1732377648054
2084521|-18000000|1732377648094
2088804|-18000000|1732377648134
2094659|-18000000|1732377648174
2101338|-18000000|1732377648214
2105022|-18000000|1732377648254
2106473|-18000000|1732377648294
2109203|-18000000|1732377648334
2110951|-18000000|1732377648374
2111038|-18000000|1732377648414
2110486|-18000000|1732377648454
2112737|-18000000|1732377648494
2116878|-18000000|1732377648534
2119247|-18000000|1732377648574
2119930|-18000000|1732377648614
2120020|-18000000|1732377648654
2121076|-18000000|1732377648694
2122233|-18000000|1732377648734
2123909|-18000000|1732377648774
2125790|-18000000|1732377648814
2127705|-18000000|1732377648854
2129744|-18000000|1732377648894
2131695|-18000000|1732377648934
2133190|-18000000|1732377648974
2134163|-18000000|1732377649014
2135332|-18000000|1732377649054
2136634|-18000000|1732377649094
2138036|-18000000|1732377649134
2138693|-18000000|1732377649174
2138676|-18000000|1732377649214
2138624|-18000000|1732377649254
2138395|-18000000|1732377649294
2140402|-18000000|1732377649334
2146123|-18000000|1732377649374
2152705|-18000000|1732377649414
2159393|-18000000|1732377649454
2162356|-18000000|1732377649494
2162872|-18000000|1732377649534
2162888|-18000000|1732377649574
2162993|-18000000|1732377649614
2163631|-18000000|1732377649654
2164090|-18000000|1732377649694
2164769|-18000000|1732377649734
2165267|-18000000|1732377649774
2165842|-18000000|1732377649814
2166878|-18000000|1732377649854
2167585|-18000000|1732377649894
2168542|-18000000|1732377649934
2169337|-18000000|1732377649974
2169400|-18000000|1732377650014
2169122|-18000000|1732377650054
2169980|-18000000|1732377650094
2174274|-18000000|1732377650134
2186117|-18000000|1732377650174
2208746|-18000000|1732377650214
2221958|-18000000|1732377650254
2230464|-18000000|1732377650294
2231396|-18000000|1732377650334
2231929|-18000000|1732377650374
2239683|-18000000|1732377650414
2242584|-18000000|1732377650454
2256468|-18000000|1732377650494
2258036|-18000000|1732377650534
2241203|-18000000|1732377650574
2210278|-18000000|1732377650614
2157096|-18000000|1732377650654
2106275|-18000000|1732377650694
2079029|-18000000|1732377650734
2059971|-18000000|1732377650774
2052849|-18000000|1732377650814
2047654|-18000000|1732377650854
2052853|-18000000|1732377650894
2065312|-18000000|1732377650934
2064531|-18000000|1732377650974
2063032|-18000000|1732377651014
2069916|-18000000|1732377651054
2087509|-18000000|1732377651094
2133341|-18000000|1732377651134
2165585|-18000000|1732377651174
2190097|-18000000|1732377651214
2203474|-18000000|1732377651254
2208427|-18000000|1732377651294
2199051|-18000000|1732377651334
2147723|-18000000|1732377651374
2085825|-18000000|1732377651414
2050216|-18000000|1732377651454
2019158|-18000000|1732377651494
1998405|-18000000|1732377651534
1981046|-18000000|1732377651574
1977754|-18000000|1732377651614
1975871|-18000000|1732377651654
1977126|-18000000|1732377651694
1978469|-18000000|1732377651734
1977118|-18000000|1732377651774
1975494|-18000000|1732377651814
1973459|-18000000|1732377651854
1966965|-18000000|1732377651894
1939784|-18000000|1732377651934
1894776|-18000000|1732377651974
1893329|-18000000|1732377652014
1906341|-18000000|1732377652054
1908546|-18000000|1732377652094
1913453|-18000000|1732377652134
1903418|-18000000|1732377652174
1945796|-18000000|1732377652214
2004386|-18000000|1732377652254
2021015|-18000000|1732377652294
2023564|-18000000|1732377652334
2025715|-18000000|1732377652374
2025886|-18000000|1732377652414
2025521|-18000000|1732377652454
2027821|-18000000|1732377652494
2039219|-18000000|1732377652534
2030728|-18000000|1732377652574
2023516|-18000000|1732377652614
2023650|-18000000|1732377652654
2024395|-18000000|1732377652694
2027562|-18000000|1732377652734
2073228|-18000000|1732377652774
2095774|-18000000|1732377652814
2105776|-18000000|1732377652854
2098933|-18000000|1732377652894
2064312|-18000000|1732377652934
2030964|-18000000|1732377652974
2066700|-18000000|1732377653014
2075085|-18000000|1732377653054
2108317|-18000000|1732377653094
2120160|-18000000|1732377653134
2112536|-18000000|1732377653174
2086299|-18000000|1732377653214
2115351|-18000000|1732377653254
2116994|-18000000|1732377653294
2140446|-18000000|1732377653334
2141140|-18000000|1732377653374
2132630|-18000000|1732377653414
2130121|-18000000|1732377653454
2133958|-18000000|1732377653494
2133017|-18000000|1732377653534
2137188|-18000000|1732377653574
2140572|-18000000|1732377653614
2145310|-18000000|1732377653654
2139731|-18000000|1732377653694
2137211|-18000000|1732377653734
2128667|-18000000|1732377653774
2133079|-18000000|1732377653814
2139857|-18000000|1732377653854
2141149|-18000000|1732377653894
2142971|-18000000|1732377653934
2154116|-18000000|1732377653974
2166970|-18000000|1732377654014
2181034|-18000000|1732377654054
2156682|-18000000|1732377654094
2133745|-18000000|1732377654134
2136386|-18000000|1732377654174
2147598|-18000000|1732377654214
2165684|-18000000|1732377654254
2178454|-18000000|1732377654294
2192715|-18000000|1732377654334
2207026|-18000000|1732377654374
2217241|-18000000|1732377654414
2220794|-18000000|1732377654454
2218674|-18000000|1732377654494
2219536|-18000000|1732377654534
2220022|-18000000|1732377654574
2224792|-18000000|1732377654614
2232475|-18000000|1732377654654
2244387|-18000000|1732377654694
2261022|-18000000|1732377654734
2269432|-18000000|1732377654774
2253281|-18000000|1732377654814
2154320|-18000000|1732377654854
2105915|-18000000|1732377654894
2077299|-18000000|1732377654934
2045364|-18000000|1732377654974
2050744|-18000000|1732377655014
2091536|-18000000|1732377655054
2107427|-18000000|1732377655094
2099499|-18000000|1732377655134
2049931|-18000000|1732377655174
2000633|-18000000|1732377655214
1993887|-18000000|1732377655254
1987757|-18000000|1732377655294
1972726|-18000000|1732377655334
1961878|-18000000|1732377655374
1951294|-18000000|1732377655414
1933318|-18000000|1732377655454
1918407|-18000000|1732377655494
1887972|-18000000|1732377655534
1868005|-18000000|1732377655574
1860572|-18000000|1732377655614
1835776|-18000000|1732377655654
1828831|-18000000|1732377655694
1815346|-18000000|1732377655734
1822394|-18000000|1732377655774
1819708|-18000000|1732377655814
1835426|-18000000|1732377655854
1848877|-18000000|1732377655894
1854597|-18000000|1732377655934
1869846|-18000000|1732377655974
1874886|-18000000|1732377656014
1874951|-18000000|1732377656054
1857255|-18000000|1732377656094
1871307|-18000000|1732377656134
1885542|-18000000|1732377656174
1882709|-18000000|1732377656214
1882826|-18000000|1732377656254
1888427|-18000000|1732377656294
1891816|-18000000|1732377656334
1898540|-18000000|1732377656374
1899890|-18000000|1732377656414
1897923|-18000000|1732377656454
1902370|-18000000|1732377656494
1900465|-18000000|1732377656534
1906767|-18000000|1732377656574
1920177|-18000000|1732377656614
1924953|-18000000|1732377656654
1942619|-18000000|1732377656694
1960007|-18000000|1732377656734
1957359|-18000000|1732377656774
1965355|-18000000|1732377656814
1969347|-18000000|1732377656854
1968079|-18000000|1732377656894
1987720|-18000000|1732377656934
1992722|-18000000|1732377656974
1995460|-18000000|1732377657014
2020745|-18000000|1732377657054
2019749|-18000000|1732377657094
2011842|-18000000|1732377657134
1996425|-18000000|1732377657174
1973713|-18000000|1732377657214
1966379|-18000000|1732377657254
1955609|-18000000|1732377657294
1926970|-18000000|1732377657334
1898777|-18000000|1732377657374
1875254|-18000000|1732377657414
1872073|-18000000|1732377657454
1883472|-18000000|1732377657494
1891667|-18000000|1732377657534
1902462|-18000000|1732377657574
1906776|-18000000|1732377657614
1920500|-18000000|1732377657654
1930160|-18000000|1732377657694
1934287|-18000000|1732377657734
1935649|-18000000|1732377657774
1935342|-18000000|1732377657814
1940254|-18000000|1732377657854
1938595|-18000000|1732377657894
1934093|-18000000|1732377657934
1931031|-18000000|1732377657974
1925715|-18000000|1732377658014
1913105|-18000000|1732377658054
1897798|-18000000|1732377658094
1878634|-18000000|1732377658134
1865482|-18000000|1732377658174
1861858|-18000000|1732377658214
1852794|-18000000|1732377658254
1842394|-18000000|1732377658294
1826441|-18000000|1732377658334
1815560|-18000000|1732377658374
1776241|-18000000|1732377658414
1756760|-18000000|1732377658454
1745886|-18000000|1732377658494
1738426|-18000000|1732377658534
1739035|-18000000|1732377658574
1752379|-18000000|1732377658614
1734536|-18000000|1732377658654
1737608|-18000000|1732377658694
1748592|-18000000|1732377658734
1740342|-18000000|1732377658774
1744667|-18000000|1732377658814
1756814|-18000000|1732377658854
1754907|-18000000|1732377658894
1755423|-18000000|1732377658934
1752857|-18000000|1732377658974
1751484|-18000000|1732377659014
1755081|-18000000|1732377659054
1755860|-18000000|1732377659094
1751658|-18000000|1732377659134
1750435|-18000000|1732377659174
1748308|-18000000|1732377659214
1750769|-18000000|1732377659254
1749614|-18000000|1732377659294
1746318|-18000000|1732377659334
1752227|-18000000|1732377659374
1751927|-18000000|1732377659414
1748358|-18000000|1732377659454
1747394|-18000000|1732377659494
1750530|-18000000|1732377659534
1746883|-18000000|1732377659574
1743477|-18000000|1732377659614
1740974|-18000000|1732377659654
1737741|-18000000|1732377659694
1731877|-18000000|1732377659734
1728823|-18000000|1732377659774
1730688|-18000000|1732377659814
1731722|-18000000|1732377659854
1731126|-18000000|1732377659894
1730289|-18000000|1732377659934
1733757|-18000000|1732377659974
1730442|-18000000|1732377660014
1727434|-18000000|1732377660054
1726627|-18000000|1732377660094
1723948|-18000000|1732377660134
1723905|-18000000|1732377660174
1722851|-18000000|1732377660214
1719979|-18000000|1732377660254
1710678|-18000000|1732377660294
1706072|-18000000|1732377660334
1702941|-18000000|1732377660374
1693006|-18000000|1732377660414
1691526|-18000000|1732377660454
1688350|-18000000|1732377660494
1688049|-18000000|1732377660534
1688423|-18000000|1732377660574
1685183|-18000000|1732377660614
1679911|-18000000|1732377660654
1673889|-18000000|1732377660694
1674719|-18000000|1732377660734
1677122|-18000000|1732377660774
1681355|-18000000|1732377660814
1670500|-18000000|1732377660854
1664049|-18000000|1732377660894
1659171|-18000000|1732377660934
1653987|-18000000|1732377660974
1625682|-18000000|1732377661014
1608401|-18000000|1732377661054
1609825|-18000000|1732377661094
1623670|-18000000|1732377661134
1663774|-18000000|1732377661174
1686583|-18000000|1732377661214
1724679|-18000000|1732377661254
1746695|-18000000|1732377661294
1775588|-18000000|1732377661334
1798114|-18000000|1732377661374
1806068|-18000000|1732377661414
1808092|-18000000|1732377661454
1821570|-18000000|1732377661494
1815470|-18000000|1732377661534
1827656|-18000000|1732377661574
1817200|-18000000|1732377661614
1779840|-18000000|1732377661654
1744141|-18000000|1732377661694
1728418|-18000000|1732377661734
1707869|-18000000|1732377661774
1680438|-18000000|1732377661814
1674498|-18000000|1732377661854
1670510|-18000000|1732377661894
1679207|-18000000|1732377661934
1660097|-18000000|1732377661974
1657905|-18000000|1732377662014
1668140|-18000000|1732377662054
1689580|-18000000|1732377662094
1712036|-18000000|1732377662134
1725486|-18000000|1732377662174
1725934|-18000000|1732377662214
1722447|-18000000|1732377662254
1718247|-18000000|1732377662294
1714688|-18000000|1732377662334
1711400|-18000000|1732377662374
1697301|-18000000|1732377662414
1674414|-18000000|1732377662454
1651546|-18000000|1732377662494
1643322|-18000000|1732377662534
1638153|-18000000|1732377662574
1637286|-18000000|1732377662614
1634511|-18000000|1732377662654
1621199|-18000000|1732377662694
1614457|-18000000|1732377662734
1619291|-18000000|1732377662774
1632860|-18000000|1732377662814
1655879|-18000000|1732377662854
1658487|-18000000|1732377662894
1645051|-18000000|1732377662934
1633105|-18000000|1732377662974
1643478|-18000000|1732377663014
1657111|-18000000|1732377663054
1654976|-18000000|1732377663094
1639304|-18000000|1732377663134
1645813|-18000000|1732377663174
1637063|-18000000|1732377663214
1623698|-18000000|1732377663254
1612709|-18000000|1732377663294
1606208|-18000000|1732377663334
1612271|-18000000|1732377663374
1623334|-18000000|1732377663414
1636847|-18000000|1732377663454
1636507|-18000000|1732377663494
1625975|-18000000|1732377663534
1613366|-18000000|1732377663574
1606189|-18000000|1732377663614
1599295|-18000000|1732377663654
1597366|-18000000|1732377663694
1600837|-18000000|1732377663734
1593680|-18000000|1732377663774
1588721|-18000000|1732377663814
1589872|-18000000|1732377663854
1586898|-18000000|1732377663894
1590696|-18000000|1732377663934
1608453|-18000000|1732377663975
1629693|-18000000|1732377664016
1639345|-18000000|1732377664055
1643603|-18000000|1732377664095
1645486|-18000000|1732377664135
1648534|-18000000|1732377664175
1645201|-18000000|1732377664215
1640572|-18000000|1732377664255
1634198|-18000000|1732377664295
1618452|-18000000|1732377664335
1612723|-18000000|1732377664375
1608004|-18000000|1732377664415
1601936|-18000000|1732377664455
1603305|-18000000|1732377664495
1607651|-18000000|1732377664535
1606261|-18000000|1732377664575
1603739|-18000000|1732377664615
1601626|-18000000|1732377664655
1598278|-18000000|1732377664695
1593165|-18000000|1732377664735
1589701|-18000000|1732377664775
1588029|-18000000|1732377664815
1589562|-18000000|1732377664855
1590425|-18000000|1732377664895
1592547|-18000000|1732377664935
1596008|-18000000|1732377664975
1601589|-18000000|1732377665015
1603259|-18000000|1732377665055
1601741|-18000000|1732377665095
1599157|-18000000|1732377665135
1597612|-18000000|1732377665175
1593530|-18000000|1732377665215
1587374|-18000000|1732377665255
1583275|-18000000|1732377665295
1579647|-18000000|1732377665335
1573835|-18000000|1732377665375
1570159|-18000000|1732377665415
1564668|-18000000|1732377665455
1561164|-18000000|1732377665495
1562055|-18000000|1732377665535
1566899|-18000000|1732377665575
1568354|-18000000|1732377665615
1568230|-18000000|1732377665655
1569092|-18000000|1732377665695
1569947|-18000000|1732377665735
1569459|-18000000|1732377665775
1564416|-18000000|1732377665815
1560888|-18000000|1732377665855
1561395|-18000000|1732377665895
1557613|-18000000|1732377665935
1555703|-18000000|1732377665975
1555131|-18000000|1732377666015
1558643|-18000000|1732377666055
1562550|-18000000|1732377666095
1566226|-18000000|1732377666135
1568483|-18000000|1732377666175
1568925|-18000000|1732377666215
1568868|-18000000|1732377666255
1569849|-18000000|1732377666295
1568944|-18000000|1732377666335
1565284|-18000000|1732377666375
1563274|-18000000|1732377666415
1560017|-18000000|1732377666455
1557287|-18000000|1732377666495
1559065|-18000000|1732377666535
1561619|-18000000|1732377666575
1565954|-18000000|1732377666615
1572361|-18000000|1732377666655
1574263|-18000000|1732377666695
1573239|-18000000|1732377666735
1570632|-18000000|1732377666775
1571542|-18000000|1732377666815
1578589|-18000000|1732377666855
1580209|-18000000|1732377666895
1568616|-18000000|1732377666935
1569358|-18000000|1732377666975
1571885|-18000000|1732377667015
1570581|-18000000|1732377667055
1576335|-18000000|1732377667095
1583432|-18000000|1732377667135
1591654|-18000000|1732377667175
1596063|-18000000|1732377667215
1597392|-18000000|1732377667255
1601038|-18000000|1732377667295
1601574|-18000000|1732377667335
1602935|-18000000|1732377667375
1609479|-18000000|1732377667415
1619100|-18000000|1732377667455
1616647|-18000000|1732377667495
1609477|-18000000|1732377667535
1609259|-18000000|1732377667575
1600419|-18000000|1732377667615
1597836|-18000000|1732377667655
1606561|-18000000|1732377667695
1613999|-18000000|1732377667735
1631139|-18000000|1732377667775
1661514|-18000000|1732377667815
1689861|-18000000|1732377667855
1713386|-18000000|1732377667895
1737635|-18000000|1732377667935
1758060|-18000000|1732377667975
1775368|-18000000|1732377668015
1798528|-18000000|1732377668055
1795294|-18000000|1732377668095
1792608|-18000000|1732377668135
1797413|-18000000|1732377668175
1782226|-18000000|1732377668215
1775815|-18000000|1732377668255
1782133|-18000000|1732377668295
1778363|-18000000|1732377668335
1787366|-18000000|1732377668375
1806025|-18000000|1732377668415
1830375|-18000000|1732377668455
1842946|-18000000|1732377668495
1854260|-18000000|1732377668535
1864705|-18000000|1732377668575
1866180|-18000000|1732377668615
1864121|-18000000|1732377668655
1865236|-18000000|1732377668695
1879481|-18000000|1732377668735
1890352|-18000000|1732377668775
1895092|-18000000|1732377668815
1898700|-18000000|1732377668855
1909848|-18000000|1732377668895
1912780|-18000000|1732377668935
1923229|-18000000|1732377668975
1946764|-18000000|1732377669015
1962874|-18000000|1732377669055
1972927|-18000000|1732377669095
1960763|-18000000|1732377669135
1941478|-18000000|1732377669175
1912568|-18000000|1732377669215
1897017|-18000000|1732377669255
1872076|-18000000|1732377669295
1869746|-18000000|1732377669335
1865428|-18000000|1732377669375
1863252|-18000000|1732377669415
1870767|-18000000|1732377669455
1864621|-18000000|1732377669495
1865129|-18000000|1732377669535
1868935|-18000000|1732377669575
1834685|-18000000|1732377669615
1771637|-18000000|1732377669655
1754110|-18000000|1732377669695
1765421|-18000000|1732377669735
1781867|-18000000|1732377669775
1787047|-18000000|1732377669815
1793181|-18000000|1732377669855
1822597|-18000000|1732377669895
1835174|-18000000|1732377669935
1871057|-18000000|1732377669975
1913882|-18000000|1732377670015
1938480|-18000000|1732377670055
1947432|-18000000|1732377670095
1946444|-18000000|1732377670135
1928937|-18000000|1732377670175
1915556|-18000000|1732377670215
1913424|-18000000|1732377670255
1913450|-18000000|1732377670295
1911750|-18000000|1732377670335
1901536|-18000000|1732377670375
1880017|-18000000|1732377670415
1867400|-18000000|1732377670455
1856719|-18000000|1732377670495
1840526|-18000000|1732377670535
1834199|-18000000|1732377670575
1831046|-18000000|1732377670615
1825842|-18000000|1732377670655
1820907|-18000000|1732377670695
1824102|-18000000|1732377670735
1827079|-18000000|1732377670775
1823544|-18000000|1732377670815
1821053|-18000000|1732377670855
1816509|-18000000|1732377670895
1821550|-18000000|1732377670935
1836408|-18000000|1732377670975
1838561|-18000000|1732377671015
1842177|-18000000|1732377671055
1845783|-18000000|1732377671095
1850493|-18000000|1732377671135
1853696|-18000000|1732377671175
1855926|-18000000|1732377671215
1855250|-18000000|1732377671255
1854441|-18000000|1732377671295
1856570|-18000000|1732377671335
1855891|-18000000|1732377671375
1853871|-18000000|1732377671415
1852501|-18000000|1732377671455
1834579|-18000000|1732377671495
1828915|-18000000|1732377671535
1834986|-18000000|1732377671575
1834643|-18000000|1732377671615
1843724|-18000000|1732377671655
1845397|-18000000|1732377671695
1848987|-18000000|1732377671735
1859312|-18000000|1732377671775
1869036|-18000000|1732377671815
1880653|-18000000|1732377671855
1897212|-18000000|1732377671895
1907932|-18000000|1732377671935
1913413|-18000000|1732377671975
1916023|-18000000|1732377672015
1919501|-18000000|1732377672055
1923358|-18000000|1732377672095
1935304|-18000000|1732377672135
1952630|-18000000|1732377672175
1965085|-18000000|1732377672215
1973157|-18000000|1732377672255
1973941|-18000000|1732377672295
1945731|-18000000|1732377672335
1925442|-18000000|1732377672375
1909340|-18000000|1732377672415
1842808|-18000000|1732377672455
1816238|-18000000|1732377672495
1852660|-18000000|1732377672535
1895040|-18000000|1732377672575
1872921|-18000000|1732377672615
1870632|-18000000|1732377672655
1882897|-18000000|1732377672695
1891757|-18000000|1732377672735
1861117|-18000000|1732377672775
1805027|-18000000|1732377672815
1800327|-18000000|1732377672855
1824119|-18000000|1732377672895
1863810|-18000000|1732377672935
1871635|-18000000|1732377672975
1867317|-18000000|1732377673015
1860946|-18000000|1732377673055
1852437|-18000000|1732377673095
1854635|-18000000|1732377673135
1873168|-18000000|1732377673175
1893101|-18000000|1732377673215
1918916|-18000000|1732377673255
1921295|-18000000|1732377673295
1903201|-18000000|1732377673335
1880853|-18000000|1732377673375
1858130|-18000000|1732377673415
1826830|-18000000|1732377673455
1823872|-18000000|1732377673495
1814307|-18000000|1732377673535
1810251|-18000000|1732377673575
1803759|-18000000|1732377673615
1795157|-18000000|1732377673655
1775881|-18000000|1732377673695
1758733|-18000000|1732377673735
1745864|-18000000|1732377673775
1733960|-18000000|1732377673815
1731266|-18000000|1732377673855
1747513|-18000000|1732377673895
1759324|-18000000|1732377673935
1753633|-18000000|1732377673975
1742380|-18000000|1732377674015
1737219|-18000000|1732377674055
1756454|-18000000|1732377674095
1788767|-18000000|1732377674135
1803938|-18000000|1732377674175
1810344|-18000000|1732377674215
1814308|-18000000|1732377674255
1821150|-18000000|1732377674295
1830154|-18000000|1732377674335
1833857|-18000000|1732377674375
1851248|-18000000|1732377674415
1863530|-18000000|1732377674455
1853284|-18000000|1732377674495
1836678|-18000000|1732377674535
1817926|-18000000|1732377674575
1792161|-18000000|1732377674615
1775545|-18000000|1732377674655
1773544|-18000000|1732377674695
1766106|-18000000|1732377674735
1755168|-18000000|1732377674775
1757851|-18000000|1732377674815
1763069|-18000000|1732377674855
1777324|-18000000|1732377674895
1788874|-18000000|1732377674935
1781235|-18000000|1732377674975
1773621|-18000000|1732377675015
1777195|-18000000|1732377675055
1780253|-18000000|1732377675095
1797439|-18000000|1732377675135
1818614|-18000000|1732377675175
1838583|-18000000|1732377675215
1864624|-18000000|1732377675255
1894735|-18000000|1732377675295
1915810|-18000000|1732377675335
1934673|-18000000|1732377675375
1944546|-18000000|1732377675415
1945060|-18000000|1732377675455
1919591|-18000000|1732377675495
1897150|-18000000|1732377675535
1892105|-18000000|1732377675575
1895690|-18000000|1732377675615
1922696|-18000000|1732377675655
1951667|-18000000|1732377675695
1954461|-18000000|1732377675735
1970578|-18000000|1732377675775
1962431|-18000000|1732377675815
1962282|-18000000|1732377675855
1956370|-18000000|1732377675895
1948947|-18000000|1732377675935
1939020|-18000000|1732377675975
1931747|-18000000|1732377676015
1929289|-18000000|1732377676985
1923648|-18000000|1732377677025
1914259|-18000000|1732377677065
1906437|-18000000|1732377677107
1907397|-18000000|1732377677145
1893520|-18000000|1732377677185
1883485|-18000000|1732377677225
1881405|-18000000|1732377677266
1883835|-18000000|1732377677305
1889132|-18000000|1732377677345
1900141|-18000000|1732377677385
1906668|-18000000|1732377677427
1918907|-18000000|1732377677465
1931257|-18000000|1732377677506
1874560|-18000000|1732377677546
1858720|-18000000|1732377677588
1913915|-18000000|1732377677626
1995232|-18000000|1732377677666
2068265|-18000000|1732377677707
2110416|-18000000|1732377677750
2159170|-18000000|1732377677787
2074447|-18000000|1732377677827
2032355|-18000000|1732377677868
1970324|-18000000|1732377677910
1954596|-18000000|1732377677949
1940057|-18000000|1732377677989
1942774|-18000000|1732377678029
1918909|-18000000|1732377678072
1915414|-18000000|1732377678110
1906216|-18000000|1732377678150
1897323|-18000000|1732377678190
1892323|-18000000|1732377678232
1895366|-18000000|1732377678270
1898657|-18000000|1732377678311
1888261|-18000000|1732377678352
1874206|-18000000|1732377678394
1872667|-18000000|1732377678432
1878034|-18000000|1732377678472
1877170|-18000000|1732377678512
1881485|-18000000|1732377678554
1882904|-18000000|1732377678593
1874857|-18000000|1732377678633
1873608|-18000000|1732377678673
1877207|-18000000|1732377678716
1880827|-18000000|1732377678754
1889587|-18000000|1732377678794
1896723|-18000000|1732377678834
1894988|-18000000|1732377678876
1905041|-18000000|1732377678915
1895668|-18000000|1732377678955
1899587|-18000000|1732377678995
1904824|-18000000|1732377679038
1898287|-18000000|1732377679076
1908815|-18000000|1732377679116
1935670|-18000000|1732377679156
1934233|-18000000|1732377679198
1925357|-18000000|1732377679236
1922016|-18000000|1732377679276
1929194|-18000000|1732377679317
1942421|-18000000|1732377679359
1921177|-18000000|1732377679397
1902717|-18000000|1732377679437
1900615|-18000000|1732377679477
1923273|-18000000|1732377679519
1924443|-18000000|1732377679558
1953017|-18000000|1732377679598
1943608|-18000000|1732377679638
1936413|-18000000|1732377679681
1967047|-18000000|1732377679718
1964564|-18000000|1732377679759
1973047|-18000000|1732377679799
1980397|-18000000|1732377679840
2003581|-18000000|1732377679879
2015457|-18000000|1732377679919
2027614|-18000000|1732377679960
2062354|-18000000|1732377680002
2100189|-18000000|1732377680040
2100139|-18000000|1732377680080
2102660|-18000000|1732377680120
2101902|-18000000|1732377680163
2072975|-18000000|1732377680201
2064259|-18000000|1732377680241
2060538|-18000000|1732377680281
2054650|-18000000|1732377680324
2058899|-18000000|1732377680362
2051637|-18000000|1732377680402
2060925|-18000000|1732377680442
2070751|-18000000|1732377680484
2066196|-18000000|1732377680523
2064980|-18000000|1732377680563
2064954|-18000000|1732377680603
2063037|-18000000|1732377680646
2060329|-18000000|1732377680684
2051735|-18000000|1732377680724
2046371|-18000000|1732377680765
2044181|-18000000|1732377680806
2051690|-18000000|1732377680845
2040963|-18000000|1732377680885
2030544|-18000000|1732377680925
2028209|-18000000|1732377680969
2023339|-18000000|1732377681006
2024013|-18000000|1732377681046
2021513|-18000000|1732377681086
2036879|-18000000|1732377681129
2065790|-18000000|1732377681167
2065118|-18000000|1732377681207
2068302|-18000000|1732377681248
2030786|-18000000|1732377681291
1947729|-18000000|1732377681328
1939421|-18000000|1732377681369
1875909|-18000000|1732377681409
1852423|-18000000|1732377681451
1849488|-18000000|1732377681489
1855447|-18000000|1732377681530
1865701|-18000000|1732377681570
1883520|-18000000|1732377681613
1899571|-18000000|1732377681650
1918508|-18000000|1732377681691
1893341|-18000000|1732377681731
1901555|-18000000|1732377681773
1909307|-18000000|1732377681811
1960146|-18000000|1732377681851
1975275|-18000000|1732377681891
1969427|-18000000|1732377681934
1947836|-18000000|1732377681972
1904731|-18000000|1732377682012
1873526|-18000000|1732377682052
1874131|-18000000|1732377682094
1878290|-18000000|1732377682132
1883909|-18000000|1732377682173
1878590|-18000000|1732377682213
1879760|-18000000|1732377682255
1900055|-18000000|1732377682293
1915819|-18000000|1732377682333
1917896|-18000000|1732377682373
1926827|-18000000|1732377682415
1939454|-18000000|1732377682454
1950220|-18000000|1732377682494
1959504|-18000000|1732377682534
1962834|-18000000|1732377682577
1961012|-18000000|1732377682614
1963237|-18000000|1732377682654
1961142|-18000000|1732377682695
1958704|-18000000|1732377682737
1962280|-18000000|1732377682775
1964499|-18000000|1732377682815
1961802|-18000000|1732377682856
1961267|-18000000|1732377682898
1959234|-18000000|1732377682936
1952680|-18000000|1732377682977
1944339|-18000000|1732377683017
1955891|-18000000|1732377683059
1953317|-18000000|1732377683097
1901334|-18000000|1732377683137
1880423|-18000000|1732377683178
1864491|-18000000|1732377683221
1860778|-18000000|1732377683258
1859783|-18000000|1732377683299
1860441|-18000000|1732377683339
1879135|-18000000|1732377683381
1923083|-18000000|1732377683419
1966604|-18000000|1732377683460
1975576|-18000000|1732377683500
1969496|-18000000|1732377683543
1950709|-18000000|1732377683581
1929184|-18000000|1732377683621
1906882|-18000000|1732377683661
1888126|-18000000|1732377683703
1878892|-18000000|1732377683741
1866375|-18000000|1732377683782
1862133|-18000000|1732377683822
1833743|-18000000|1732377683865
1819045|-18000000|1732377683903
1813781|-18000000|1732377683943
1806387|-18000000|1732377683983
1812681|-18000000|1732377684025
1805240|-18000000|1732377684064
1806409|-18000000|1732377684104
1809344|-18000000|1732377684144
1808246|-18000000|1732377684187
1797854|-18000000|1732377684225
1796071|-18000000|1732377684265
1792044|-18000000|1732377684305
1792257|-18000000|1732377684347
1792385|-18000000|1732377684387
1791116|-18000000|1732377684427
1793240|-18000000|1732377684467
1800193|-18000000|1732377684510
1807313|-18000000|1732377684547
1809178|-18000000|1732377684588
1805496|-18000000|1732377684628
1806144|-18000000|1732377684669
1824269|-18000000|1732377684708
1847462|-18000000|1732377684748
1888961|-18000000|1732377684788
1910333|-18000000|1732377684831
1924517|-18000000|1732377684869
1931331|-18000000|1732377684909
1927187|-18000000|1732377684949
1923135|-18000000|1732377684991
1924489|-18000000|1732377685029
1922150|-18000000|1732377685069
1914517|-18000000|1732377685110
1910915|-18000000|1732377685152
1928335|-18000000|1732377685190
1951358|-18000000|1732377685230
1969237|-18000000|1732377685270
1991786|-18000000|1732377685312
2013875|-18000000|1732377685351
2036592|-18000000|1732377685391
2050843|-18000000|1732377685431
2062406|-18000000|1732377685474
2072582|-18000000|1732377685512
2083947|-18000000|1732377685552
2095847|-18000000|1732377685593
2098121|-18000000|1732377685634
2098871|-18000000|1732377685673
2090478|-18000000|1732377685713
2075310|-18000000|1732377685753
2078124|-18000000|1732377685796
2083740|-18000000|1732377685834
2082461|-18000000|1732377685874
2081861|-18000000|1732377685914
2083510|-18000000|1732377685956
2085138|-18000000|1732377685995
2084220|-18000000|1732377686035
2081111|-18000000|1732377686076
2077254|-18000000|1732377686118
2069920|-18000000|1732377686156
2061202|-18000000|1732377686197
2053170|-18000000|1732377686236
2046489|-18000000|1732377686278
2040573|-18000000|1732377686317
2040212|-18000000|1732377686357
2038459|-18000000|1732377686398
2028481|-18000000|1732377686440
2030211|-18000000|1732377686478
2032965|-18000000|1732377686518
2029517|-18000000|1732377686559
2024987|-18000000|1732377686601
2025468|-18000000|1732377686639
2023430|-18000000|1732377686679
2021953|-18000000|1732377686719
2023503|-18000000|1732377686762
2018960|-18000000|1732377686801
2015940|-18000000|1732377686840
2016288|-18000000|1732377686881
2016392|-18000000|1732377686923
2019999|-18000000|1732377686961
2022684|-18000000|1732377687002
2022973|-18000000|1732377687041
2022200|-18000000|1732377687084
2021111|-18000000|1732377687122
2019754|-18000000|1732377687162
2019534|-18000000|1732377687202
2021819|-18000000|1732377687244
2022490|-18000000|1732377687282
2021974|-18000000|1732377687322
2022803|-18000000|1732377687363
2022917|-18000000|1732377687406
2020736|-18000000|1732377687443
2018852|-18000000|1732377687483
2016886|-18000000|1732377687523
2015570|-18000000|1732377687565
2014538|-18000000|1732377687604
2011957|-18000000|1732377687644
2009203|-18000000|1732377687684
2007183|-18000000|1732377687727
2005256|-18000000|1732377687765
2003386|-18000000|1732377687805
2002265|-18000000|1732377687845
2000680|-18000000|1732377687887
1999217|-18000000|1732377687925
1998822|-18000000|1732377687965
1996912|-18000000|1732377688006
1992928|-18000000|1732377688048
1988588|-18000000|1732377688086
1986225|-18000000|1732377688126
1984791|-18000000|1732377688167
1980055|-18000000|1732377688209
1972730|-18000000|1732377688247
1968100|-18000000|1732377688287
1965981|-18000000|1732377688328
1966857|-18000000|1732377688371
1966232|-18000000|1732377688408
1963908|-18000000|1732377688448
1963253|-18000000|1732377688489
1961629|-18000000|1732377688531
1962056|-18000000|1732377688569
1962282|-18000000|1732377688610
1965348|-18000000|1732377688650
1971061|-18000000|1732377688693
1978805|-18000000|1732377688731
1993958|-18000000|1732377688771
2010718|-18000000|1732377688811
2014492|-18000000|1732377688853
2020328|-18000000|1732377688891
2028968|-18000000|1732377688932
2034657|-18000000|1732377688972
2038039|-18000000|1732377689015
2041947|-18000000|1732377689055
2044721|-18000000|1732377689095
2045771|-18000000|1732377689135
2051927|-18000000|1732377689175
2061063|-18000000|1732377689215
2070945|-18000000|1732377689255
2072059|-18000000|1732377689295
2064798|-18000000|1732377689335
2059091|-18000000|1732377689375
2054730|-18000000|1732377689415
2048098|-18000000|1732377689455
2041829|-18000000|1732377689495
2040223|-18000000|1732377689535
2041711|-18000000|1732377689575
2038280|-18000000|1732377689615
2034091|-18000000|1732377689655
2025954|-18000000|1732377689695
2017300|-18000000|1732377689735
2018282|-18000000|1732377689775
2020206|-18000000|1732377689815
2021988|-18000000|1732377689855
2022577|-18000000|1732377689895
2023697|-18000000|1732377689935
2019112|-18000000|1732377689975
2003362|-18000000|1732377690015
1997702|-18000000|1732377690055
1996110|-18000000|1732377690095
1983257|-18000000|1732377690135
1959259|-18000000|1732377690175
1949583|-18000000|1732377690215
1953789|-18000000|1732377690255
1953037|-18000000|1732377690295
1948306|-18000000|1732377690335
1945389|-18000000|1732377690375
1942903|-18000000|1732377690415
1937925|-18000000|1732377690455
1936946|-18000000|1732377690495
1931732|-18000000|1732377690535
1921030|-18000000|1732377690575
1908363|-18000000|1732377690615
1902800|-18000000|1732377690655
1875806|-18000000|1732377690695
1856359|-18000000|1732377690735
1846429|-18000000|1732377690775
1845304|-18000000|1732377690815
1846957|-18000000|1732377690855
1846011|-18000000|1732377690895
1842476|-18000000|1732377690935
1833301|-18000000|1732377690975
1829219|-18000000|1732377691015
1831095|-18000000|1732377691055
1837301|-18000000|1732377691095
1838412|-18000000|1732377691135
1836795|-18000000|1732377691175
1836723|-18000000|1732377691215
1835759|-18000000|1732377691255
1841724|-18000000|1732377691295
1840161|-18000000|1732377691335
1837165|-18000000|1732377691375
1838803|-18000000|1732377691415
1841736|-18000000|1732377691455
1838811|-18000000|1732377691495
1836036|-18000000|1732377691535
1839116|-18000000|1732377691575
1849456|-18000000|1732377691615
1862604|-18000000|1732377691655
1871814|-18000000|1732377691695
1880504|-18000000|1732377691735
1887477|-18000000|1732377691775
1893880|-18000000|1732377691815
1911049|-18000000|1732377691855
1936053|-18000000|1732377691895
1956488|-18000000|1732377691935
1963740|-18000000|1732377691975
1967359|-18000000|1732377692015
1960865|-18000000|1732377692055
1952866|-18000000|1732377692095
1950179|-18000000|1732377692135
1945317|-18000000|1732377692175
1942173|-18000000|1732377692215
1940269|-18000000|1732377692255
1940098|-18000000|1732377692295
1937160|-18000000|1732377692335
1937103|-18000000|1732377692375
1938929|-18000000|1732377692415
1944549|-18000000|1732377692455
1957747|-18000000|1732377692495
1966280|-18000000|1732377692535
1971914|-18000000|1732377692575
1973117|-18000000|1732377692615
1959738|-18000000|1732377692655
1947376|-18000000|1732377692695
1929948|-18000000|1732377692735
1914015|-18000000|1732377692775
1895845|-18000000|1732377692815
1875882|-18000000|1732377692855
1856891|-18000000|1732377692895
1845480|-18000000|1732377692935
1838657|-18000000|1732377692975
1840892|-18000000|1732377693015
1851621|-18000000|1732377693055
1862766|-18000000|1732377693095
1873997|-18000000|1732377693135
1877246|-18000000|1732377693175
1870067|-18000000|1732377693215
1864519|-18000000|1732377693255
1859122|-18000000|1732377693295
1851287|-18000000|1732377693335
1848621|-18000000|1732377693375
1851333|-18000000|1732377693415
1846066|-18000000|1732377693455
1831170|-18000000|1732377693495
1802900|-18000000|1732377693535
1769907|-18000000|1732377693575
1764176|-18000000|1732377693615
1751677|-18000000|1732377693655
1741609|-18000000|1732377693695
1728593|-18000000|1732377693735
1717365|-18000000|1732377693775
1706351|-18000000|1732377693815
1701135|-18000000|1732377693855
1706289|-18000000|1732377693895
1716681|-18000000|1732377693935
1717723|-18000000|1732377693975
1721125|-18000000|1732377694015
1718165|-18000000|1732377694055
1713068|-18000000|1732377694095
1704731|-18000000|1732377694135
1708192|-18000000|1732377694175
1722785|-18000000|1732377694215
1727348|-18000000|1732377694255
1727144|-18000000|1732377694295
1732064|-18000000|1732377694335
1725258|-18000000|1732377694375
1718846|-18000000|1732377694415
1713215|-18000000|1732377694455
1701564|-18000000|1732377694495
1697449|-18000000|1732377694535
1713287|-18000000|1732377694575
1725006|-18000000|1732377694615
1723407|-18000000|1732377694655
1719064|-18000000|1732377694695
1714954|-18000000|1732377694735
1712314|-18000000|1732377694775
1715516|-18000000|1732377694815
1720779|-18000000|1732377694855
1725955|-18000000|1732377694895
1731137|-18000000|1732377694935
1736434|-18000000|1732377694975
1737515|-18000000|1732377695015
1724698|-18000000|1732377695055
1714849|-18000000|1732377695095
1719429|-18000000|1732377695135
1713471|-18000000|1732377695175
1715503|-18000000|1732377695215
1723384|-18000000|1732377695255
1727235|-18000000|1732377695295
1735090|-18000000|1732377695335
1739398|-18000000|1732377695375
1742479|-18000000|1732377695415
1742729|-18000000|1732377695455
1747215|-18000000|1732377695495
1759556|-18000000|1732377695535
1763914|-18000000|1732377695575
1757284|-18000000|1732377695615
1754049|-18000000|1732377695655
1757394|-18000000|1732377695695
1758775|-18000000|1732377695735
1760386|-18000000|1732377695775
1765850|-18000000|1732377695815
1770162|-18000000|1732377695855
1775726|-18000000|1732377695895
1772981|-18000000|1732377695935
1774700|-18000000|1732377695975
1783533|-18000000|1732377696015
1786763|-18000000|1732377696055
1788061|-18000000|1732377696095
1792601|-18000000|1732377696135
1791473|-18000000|1732377696175
1797131|-18000000|1732377696215
1802384|-18000000|1732377696255
1810868|-18000000|1732377696295
1823884|-18000000|1732377696335
1831578|-18000000|1732377696375
1831929|-18000000|1732377696415
1830978|-18000000|1732377696455
1826264|-18000000|1732377696495
1826260|-18000000|1732377696535
1827059|-18000000|1732377696575
1824766|-18000000|1732377696615
1825496|-18000000|1732377696655
1826781|-18000000|1732377696695
1826192|-18000000|1732377696735
1828838|-18000000|1732377696775
1832834|-18000000|1732377696815
1837560|-18000000|1732377696855
1841212|-18000000|1732377696895
1846189|-18000000|1732377696935
1843302|-18000000|1732377696975
1839207|-18000000|1732377697015
1838419|-18000000|1732377697055
1820844|-18000000|1732377697095
1789281|-18000000|1732377697135
1759819|-18000000|1732377697175
1736308|-18000000|1732377697215
1715786|-18000000|1732377697255
1712598|-18000000|1732377697295
1714878|-18000000|1732377697335
1710483|-18000000|1732377697375
1699622|-18000000|1732377697415
1720478|-18000000|1732377697455
1729817|-18000000|1732377697495
1740211|-18000000|1732377697535
1739934|-18000000|1732377697575
1746667|-18000000|1732377697615
1751312|-18000000|1732377697655
1759799|-18000000|1732377697695
1731298|-18000000|1732377697735
1732075|-18000000|1732377697775
1747234|-18000000|1732377697815
1758085|-18000000|1732377697855
1774667|-18000000|1732377697895
1782801|-18000000|1732377697935
1784904|-18000000|1732377697975
1800722|-18000000|1732377698015
1825700|-18000000|1732377698055
1849359|-18000000|1732377698095
1877592|-18000000|1732377698135
1904662|-18000000|1732377698175
1919121|-18000000|1732377698215
1927473|-18000000|1732377698255
1936648|-18000000|1732377698295
1944094|-18000000|1732377698335
1947612|-18000000|1732377698375
1953342|-18000000|1732377698415
1959232|-18000000|1732377698455
1964220|-18000000|1732377698495
1967803|-18000000|1732377698535
1969742|-18000000|1732377698575
1969847|-18000000|1732377698615
1965878|-18000000|1732377698655
1970958|-18000000|1732377698695
1975368|-18000000|1732377698735
1925408|-18000000|1732377698775
1909196|-18000000|1732377698815
1867036|-18000000|1732377698855
1837859|-18000000|1732377698895
1858305|-18000000|1732377698935
1889242|-18000000|1732377698975
1891582|-18000000|1732377699015
1901531|-18000000|1732377699055
1934860|-18000000|1732377699095
1958680|-18000000|1732377699135
1971876|-18000000|1732377699175
2004881|-18000000|1732377699215
2060872|-18000000|1732377699255
2070412|-18000000|1732377699295
2070981|-18000000|1732377699335
2041954|-18000000|1732377699375
2030951|-18000000|1732377699415
2023904|-18000000|1732377699455
2025412|-18000000|1732377699495
2008417|-18000000|1732377699535
1992533|-18000000|1732377699575
1957740|-18000000|1732377699615
1943740|-18000000|1732377699655
1922386|-18000000|1732377699695
1931717|-18000000|1732377699735
1968363|-18000000|1732377699775
2021717|-18000000|1732377699815
2007826|-18000000|1732377699855
2033246|-18000000|1732377699895
2061042|-18000000|1732377699935
2088134|-18000000|1732377699975
2102834|-18000000|1732377700015
2109364|-18000000|1732377700055
2115972|-18000000|1732377700095
2123591|-18000000|1732377700135
2110422|-18000000|1732377700175
2031927|-18000000|1732377700215
1996862|-18000000|1732377700255
1927955|-18000000|1732377700295
1944505|-18000000|1732377700335
1957691|-18000000|1732377700375
1958577|-18000000|1732377700415
1972791|-18000000|1732377700455
1976735|-18000000|1732377700495
1937958|-18000000|1732377700535
1905680|-18000000|1732377700575
1895455|-18000000|1732377700615
1865122|-18000000|1732377700655
1858500|-18000000|1732377700695
1859815|-18000000|1732377700735
1857205|-18000000|1732377700775
1862978|-18000000|1732377700815
1861096|-18000000|1732377700855
1857502|-18000000|1732377700895
1855440|-18000000|1732377700935
1851851|-18000000|1732377700975
1850261|-18000000|1732377701015
1851400|-18000000|1732377701055
1854056|-18000000|1732377701095
1847923|-18000000|1732377701135
1848564|-18000000|1732377701175
1848905|-18000000|1732377701215
1846712|-18000000|1732377701255
1838379|-18000000|1732377701295
1835043|-18000000|1732377701335
1831975|-18000000|1732377701375
1830376|-18000000|1732377701415
1825128|-18000000|1732377701455
1820430|-18000000|1732377701495
1810106|-18000000|1732377701535
1816656|-18000000|1732377701575
1840925|-18000000|1732377701615
1864503|-18000000|1732377701655
1877011|-18000000|1732377701695
1884039|-18000000|1732377701735
1888073|-18000000|1732377701775
1891550|-18000000|1732377701815
1891720|-18000000|1732377701855
1890967|-18000000|1732377701895
1891017|-18000000|1732377701935
1890198|-18000000|1732377701975
1888772|-18000000|1732377702015
1885613|-18000000|1732377702055
1883897|-18000000|1732377702095
1882908|-18000000|1732377702135
1881702|-18000000|1732377702175
1880541|-18000000|1732377702215
1880295|-18000000|1732377702255
1880763|-18000000|1732377702295
1880328|-18000000|1732377702335
1878659|-18000000|1732377702375
1876838|-18000000|1732377702415
1874748|-18000000|1732377702455
1872597|-18000000|1732377702495
1871677|-18000000|1732377702535
1870961|-18000000|1732377702575
1869971|-18000000|1732377702615
1869180|-18000000|1732377702655
1868809|-18000000|1732377702695
1868216|-18000000|1732377702735
1867691|-18000000|1732377702775
1866611|-18000000|1732377702815
1865304|-18000000|1732377702855
1865275|-18000000|1732377702895
1863652|-18000000|1732377702935
1862044|-18000000|1732377702975
1860096|-18000000|1732377703015
1857328|-18000000|1732377703055
1855236|-18000000|1732377703095
1851678|-18000000|1732377703135
1848485|-18000000|1732377703175
1842577|-18000000|1732377703215
1835959|-18000000|1732377703255
1825948|-18000000|1732377703295
1818165|-18000000|1732377703335
1804710|-18000000|1732377703375
1791481|-18000000|1732377703415
1776612|-18000000|1732377703455
1765373|-18000000|1732377703495
1754534|-18000000|1732377703535
1745644|-18000000|1732377703575
1737679|-18000000|1732377703615
1730394|-18000000|1732377703655
1723736|-18000000|1732377703695
1717588|-18000000|1732377703735
1710184|-18000000|1732377703775
1699098|-18000000|1732377703815
1689226|-18000000|1732377703855
1683506|-18000000|1732377703895
1683095|-18000000|1732377703935
1679250|-18000000|1732377703975
1668766|-18000000|1732377704015
1662521|-18000000|1732377704055
1670163|-18000000|1732377704095
1682800|-18000000|1732377704135
1693360|-18000000|1732377704175
1691645|-18000000|1732377704215
1688946|-18000000|1732377704255
1685953|-18000000|1732377704295
1685032|-18000000|1732377704335
1686926|-18000000|1732377704375
1669603|-18000000|1732377704415
1667838|-18000000|1732377704455
1684497|-18000000|1732377704495
1704165|-18000000|1732377704535
1716543|-18000000|1732377704575
1735746|-18000000|1732377704615
1772255|-18000000|1732377704655
1807859|-18000000|1732377704695
1821541|-18000000|1732377704735
1860529|-18000000|1732377704775
1899751|-18000000|1732377704815
1868082|-18000000|1732377704855
1778860|-18000000|1732377704895
1743402|-18000000|1732377704935
1734149|-18000000|1732377704975
1747701|-18000000|1732377705015
1763640|-18000000|1732377705055
1766262|-18000000|1732377705095
1775823|-18000000|1732377705135
1798412|-18000000|1732377705175
1817587|-18000000|1732377705215
1849724|-18000000|1732377705255
1866102|-18000000|1732377705295
1860569|-18000000|1732377705335
1853977|-18000000|1732377705375
1839722|-18000000|1732377705415
1841601|-18000000|1732377705455
1863240|-18000000|1732377705495
1851705|-18000000|1732377705535
1846682|-18000000|1732377705575
1844305|-18000000|1732377705615
1850956|-18000000|1732377705655
1854849|-18000000|1732377705695
1870882|-18000000|1732377705735
1907138|-18000000|1732377705775
1923507|-18000000|1732377705815
1875249|-18000000|1732377705855
1840715|-18000000|1732377705895
1853763|-18000000|1732377705935
1853853|-18000000|1732377705975
1848654|-18000000|1732377706015
1855404|-18000000|1732377706055
1853684|-18000000|1732377706095
1863286|-18000000|1732377706135
1885613|-18000000|1732377706175
1884391|-18000000|1732377706215
1833958|-18000000|1732377706255
1740178|-18000000|1732377706295
1737723|-18000000|1732377706335
1739110|-18000000|1732377706375
1744403|-18000000|1732377706415
1738940|-18000000|1732377706455
1739591|-18000000|1732377706495
1740411|-18000000|1732377706535
1746034|-18000000|1732377706575
1751711|-18000000|1732377706615
1759619|-18000000|1732377706655
1765615|-18000000|1732377706695
1772600|-18000000|1732377706735
1781384|-18000000|1732377706775
1784369|-18000000|1732377706815
1782972|-18000000|1732377706855
1777499|-18000000|1732377706895
1774801|-18000000|1732377706935
1767164|-18000000|1732377706975
1759253|-18000000|1732377707015
1751450|-18000000|1732377707055
1746980|-18000000|1732377707095
1747765|-18000000|1732377707135
1745939|-18000000|1732377707175
1744404|-18000000|1732377707215
1743322|-18000000|1732377707255
1744617|-18000000|1732377707295
1743701|-18000000|1732377707335
1743580|-18000000|1732377707375
1745590|-18000000|1732377707415
1746464|-18000000|1732377707455
1745875|-18000000|1732377707495
1746567|-18000000|1732377707535
1745770|-18000000|1732377707575
1745584|-18000000|1732377707615
1746034|-18000000|1732377707655
1744456|-18000000|1732377707695
1743624|-18000000|1732377707735
1742332|-18000000|1732377707775
1741295|-18000000|1732377707815
1740948|-18000000|1732377707855
1740366|-18000000|1732377707895
1738011|-18000000|1732377707935
1736261|-18000000|1732377707975
1735448|-18000000|1732377708015
1733801|-18000000|1732377708055
1732956|-18000000|1732377708095
1731530|-18000000|1732377708135
1729319|-18000000|1732377708175
1726231|-18000000|1732377708215
1722628|-18000000|1732377708255
1724891|-18000000|1732377708295
1723388|-18000000|1732377708335
1722948|-18000000|1732377708375
1720974|-18000000|1732377708415
1723392|-18000000|1732377708455
1723957|-18000000|1732377708495
1723808|-18000000|1732377708535
1723201|-18000000|1732377708575
1740610|-18000000|1732377708615
1747995|-18000000|1732377708655
1755582|-18000000|1732377708695
1775033|-18000000|1732377708735
1801333|-18000000|1732377708775
1824562|-18000000|1732377708815
1843928|-18000000|1732377708855
1857170|-18000000|1732377708895
1872030|-18000000|1732377708935
1897188|-18000000|1732377708975
1891709|-18000000|1732377709015
1896873|-18000000|1732377709055
1905373|-18000000|1732377709095
1898254|-18000000|1732377709135
1898128|-18000000|1732377709175
1887227|-18000000|1732377709215
1888796|-18000000|1732377709255
1890367|-18000000|1732377709295
1878652|-18000000|1732377709335
1898033|-18000000|1732377709375
1892650|-18000000|1732377709415
1896179|-18000000|1732377709455
1893049|-18000000|1732377709495
1906712|-18000000|1732377709535
1920949|-18000000|1732377709575
1932742|-18000000|1732377709615
1948414|-18000000|1732377709655
1958048|-18000000|1732377709695
1957984|-18000000|1732377709735
1982179|-18000000|1732377709775
2025497|-18000000|1732377709815
2062368|-18000000|1732377709855
2010489|-18000000|1732377709895
1982108|-18000000|1732377709935
2016707|-18000000|1732377709975
2067990|-18000000|1732377710015
2042156|-18000000|1732377710055
1978523|-18000000|1732377710095
1961173|-18000000|1732377710135
1903003|-18000000|1732377710175
1885603|-18000000|1732377710215
1863021|-18000000|1732377710255
1852536|-18000000|1732377710295
1862458|-18000000|1732377710335
1873979|-18000000|1732377710375
1867067|-18000000|1732377710415
1902047|-18000000|1732377710455
1903950|-18000000|1732377710495
1929956|-18000000|1732377710535
1941505|-18000000|1732377710575
1920798|-18000000|1732377710615
1869022|-18000000|1732377710655
1842438|-18000000|1732377710695
1836956|-18000000|1732377710735
1863016|-18000000|1732377710775
1872881|-18000000|1732377710815
1886318|-18000000|1732377710855
1849831|-18000000|1732377710895
1841108|-18000000|1732377710935
1838256|-18000000|1732377710975
1834917|-18000000|1732377711015
1844312|-18000000|1732377711055
1853734|-18000000|1732377711095
1870488|-18000000|1732377711135
1897801|-18000000|1732377711175
1924568|-18000000|1732377711215
1923725|-18000000|1732377711255
1975613|-18000000|1732377711295
1999751|-18000000|1732377711335
1978953|-18000000|1732377711375
1935680|-18000000|1732377711415
1906461|-18000000|1732377711455
1895158|-18000000|1732377711495
1889761|-18000000|1732377711535
1893985|-18000000|1732377711575
1928531|-18000000|1732377711615
1896924|-18000000|1732377711655
1960597|-18000000|1732377711695
1912803|-18000000|1732377711735
1905310|-18000000|1732377711775
1898989|-18000000|1732377711815
1902528|-18000000|1732377711855
1883276|-18000000|1732377711895
1869674|-18000000|1732377711935
1861120|-18000000|1732377711975
1853080|-18000000|1732377712015
1849801|-18000000|1732377712055
1844712|-18000000|1732377712095
1863298|-18000000|1732377712135
1903735|-18000000|1732377712175
1928106|-18000000|1732377712215
1937157|-18000000|1732377712255
1961230|-18000000|1732377712295
1970574|-18000000|1732377712335
1974654|-18000000|1732377712375
1989746|-18000000|1732377712415
2012307|-18000000|1732377712455
2034193|-18000000|1732377712495
2048781|-18000000|1732377712535
2048841|-18000000|1732377712575
2050207|-18000000|1732377712615
2054206|-18000000|1732377712655
2058952|-18000000|1732377712695
2061182|-18000000|1732377712735
2062079|-18000000|1732377712775
2067892|-18000000|1732377712816
2074763|-18000000|1732377712857
2079491|-18000000|1732377712898
2083008|-18000000|1732377712939
2085053|-18000000|1732377712980
2086641|-18000000|1732377713021
2087986|-18000000|1732377713060
2089390|-18000000|1732377713099
2091278|-18000000|1732377713138
2092954|-18000000|1732377713177
2093805|-18000000|1732377713217
2095349|-18000000|1732377713257
2096659|-18000000|1732377713297
2098284|-18000000|1732377713337
2099616|-18000000|1732377713377
2101052|-18000000|1732377713417
2103141|-18000000|1732377713457
2106294|-18000000|1732377713497
2122213|-18000000|1732377713537
2127425|-18000000|1732377713577
2131079|-18000000|1732377713617
2134076|-18000000|1732377713657
2136103|-18000000|1732377713697
2138876|-18000000|1732377713737
2144098|-18000000|1732377713777
2152652|-18000000|1732377713817
2153683|-18000000|1732377713857
2133901|-18000000|1732377713897
2101765|-18000000|1732377713937
2086966|-18000000|1732377713977
2083999|-18000000|1732377714017
2039491|-18000000|1732377714057
1935040|-18000000|1732377714097
1916171|-18000000|1732377714137
1901318|-18000000|1732377714177
1900291|-18000000|1732377714217
1903613|-18000000|1732377714257
1900871|-18000000|1732377714297
1886231|-18000000|1732377714337
1875944|-18000000|1732377714377
1869906|-18000000|1732377714417
1866528|-18000000|1732377714457
1868517|-18000000|1732377714497
1868676|-18000000|1732377714537
1866630|-18000000|1732377714577
1868475|-18000000|1732377714617
1875773|-18000000|1732377714657
1913990|-18000000|1732377714697
1934584|-18000000|1732377714737
1983625|-18000000|1732377714777
1990950|-18000000|1732377714817
1999660|-18000000|1732377714857
2021768|-18000000|1732377714897
2043061|-18000000|1732377714937
2053210|-18000000|1732377714977
2063732|-18000000|1732377715017
2083047|-18000000|1732377715057
2094491|-18000000|1732377715097
2105772|-18000000|1732377715137
2121685|-18000000|1732377715177
2141320|-18000000|1732377715217
2167604|-18000000|1732377715257
2190682|-18000000|1732377715297
2194059|-18000000|1732377715337
2180537|-18000000|1732377715377
2150125|-18000000|1732377715417
2123025|-18000000|1732377715457
2064709|-18000000|1732377715497
2022731|-18000000|1732377715537
2012209|-18000000|1732377715577
1997748|-18000000|1732377715617
1997368|-18000000|1732377715657
2035243|-18000000|1732377715697
2055791|-18000000|1732377715737
2059401|-18000000|1732377715777
2071444|-18000000|1732377715817
2079791|-18000000|1732377715857
2055949|-18000000|1732377715897
2037398|-18000000|1732377715937
2039759|-18000000|1732377715977
2048579|-18000000|1732377716017
2057300|-18000000|1732377716057
2065192|-18000000|1732377716097
2077453|-18000000|1732377716137
2098559|-18000000|1732377716177
2120254|-18000000|1732377716217
2133153|-18000000|1732377716257
2141215|-18000000|1732377716297
2146667|-18000000|1732377716337
2146435|-18000000|1732377716377
2143274|-18000000|1732377716417
2140837|-18000000|1732377716457
2138821|-18000000|1732377716497
2134792|-18000000|1732377716537
2129785|-18000000|1732377716577
2129937|-18000000|1732377716617
2131630|-18000000|1732377716657
2138141|-18000000|1732377716697
2142740|-18000000|1732377716737
2145581|-18000000|1732377716777
2148385|-18000000|1732377716817
2149714|-18000000|1732377716857
2139818|-18000000|1732377716897
2108904|-18000000|1732377716937
2016487|-18000000|1732377716977
1997233|-18000000|1732377717017
1982548|-18000000|1732377717057
1974046|-18000000|1732377717097
1971104|-18000000|1732377717137
1964036|-18000000|1732377717177
1960220|-18000000|1732377717217
1957610|-18000000|1732377717257
1954750|-18000000|1732377717297
1950609|-18000000|1732377717337
1948283|-18000000|1732377717377
1947015|-18000000|1732377717417
1945711|-18000000|1732377717457
1946171|-18000000|1732377717497
1947674|-18000000|1732377717537
1949361|-18000000|1732377717577
1953926|-18000000|1732377717617
1958940|-18000000|1732377717657
1965648|-18000000|1732377717697
1973008|-18000000|1732377717737
1981165|-18000000|1732377717777
1988962|-18000000|1732377717817
1995933|-18000000|1732377717857
2006950|-18000000|1732377717897
2015125|-18000000|1732377717937
2028798|-18000000|1732377717977
2051901|-18000000|1732377718017
2087118|-18000000|1732377718057
2115137|-18000000|1732377718097
2124751|-18000000|1732377718137
2129921|-18000000|1732377718177
2134225|-18000000|1732377718217
2139719|-18000000|1732377718257
2145433|-18000000|1732377718297
2150592|-18000000|1732377718337
2155105|-18000000|1732377718377
2157524|-18000000|1732377718417
2161172|-18000000|1732377718457
2165612|-18000000|1732377718497
2169781|-18000000|1732377718537
2172915|-18000000|1732377718577
2174353|-18000000|1732377718617
2176640|-18000000|1732377718657
2179659|-18000000|1732377718697
2179499|-18000000|1732377718737
2178799|-18000000|1732377718777
2179450|-18000000|1732377718817
2180772|-18000000|1732377718857
2182631|-18000000|1732377718897
2186828|-18000000|1732377718937
2190906|-18000000|1732377718977
2195315|-18000000|1732377719017
2200101|-18000000|1732377719057
2203759|-18000000|1732377719097
2207575|-18000000|1732377719137
2209898|-18000000|1732377719177
2211350|-18000000|1732377719217
2212515|-18000000|1732377719257
2212075|-18000000|1732377719297
2210961|-18000000|1732377719337
2204177|-18000000|1732377719377
2161598|-18000000|1732377719417
2065654|-18000000|1732377719457
2038258|-18000000|1732377719497
2057807|-18000000|1732377719537
2065268|-18000000|1732377719577
2068894|-18000000|1732377719617
2074365|-18000000|1732377719657
2083806|-18000000|1732377719697
2084242|-18000000|1732377719737
2076143|-18000000|1732377719777
2059843|-18000000|1732377719817
2031219|-18000000|1732377719857
2016427|-18000000|1732377719897
2007523|-18000000|1732377719937
1997847|-18000000|1732377719977
1993828|-18000000|1732377720017
1996459|-18000000|1732377720057
2000234|-18000000|1732377720097
2005725|-18000000|1732377720137
2028434|-18000000|1732377720177
2038292|-18000000|1732377720217
2047175|-18000000|1732377720257
2047141|-18000000|1732377720297
2049824|-18000000|1732377720337
2061207|-18000000|1732377720377
2070406|-18000000|1732377720417
2078853|-18000000|1732377720457
2101315|-18000000|1732377720497
2118001|-18000000|1732377720537
2128474|-18000000|1732377720577
2134424|-18000000|1732377720617
2141182|-18000000|1732377720657
2146134|-18000000|1732377720697
2149001|-18000000|1732377720737
2146546|-18000000|1732377720777
2147725|-18000000|1732377720817
2151909|-18000000|1732377720857
2154045|-18000000|1732377720897
2149821|-18000000|1732377720937
2148630|-18000000|1732377720977
2150747|-18000000|1732377721017
2151438|-18000000|1732377721057
2148694|-18000000|1732377721097
2149566|-18000000|1732377721137
2151416|-18000000|1732377721177
2153692|-18000000|1732377721217
2157075|-18000000|1732377721257
2158217|-18000000|1732377721297
2157217|-18000000|1732377721337
2155538|-18000000|1732377721377
2150959|-18000000|1732377721417
2133300|-18000000|1732377721457
2112227|-18000000|1732377721497
2098588|-18000000|1732377721537
2097861|-18000000|1732377721577
2104639|-18000000|1732377721617
2113365|-18000000|1732377721657
2123568|-18000000|1732377721697
2135143|-18000000|1732377721737
2142869|-18000000|1732377721777
2144224|-18000000|1732377721817
2144966|-18000000|1732377721857
2145360|-18000000|1732377721897
2143441|-18000000|1732377721937
2142395|-18000000|1732377721977
2144510|-18000000|1732377722017
2146271|-18000000|1732377722057
2145716|-18000000|1732377722097
2145113|-18000000|1732377722137
2146612|-18000000|1732377722177
2147986|-18000000|1732377722217
2145176|-18000000|1732377722257
2140958|-18000000|1732377722297
2143769|-18000000|1732377722337
2148728|-18000000|1732377722377
2152843|-18000000|1732377722417
2153860|-18000000|1732377722457
2151363|-18000000|1732377722497
2147660|-18000000|1732377722537
2135759|-18000000|1732377722577
2132716|-18000000|1732377722617
2132361|-18000000|1732377722657
2134639|-18000000|1732377722697
2134893|-18000000|1732377722737
2135193|-18000000|1732377722777
2134858|-18000000|1732377722817
2131451|-18000000|1732377722857
2128368|-18000000|1732377722897
2124712|-18000000|1732377722937
2120203|-18000000|1732377722977
2114356|-18000000|1732377723017
2107535|-18000000|1732377723057
2106446|-18000000|1732377723097
2102953|-18000000|1732377723137
2091041|-18000000|1732377723177
2069565|-18000000|1732377723217
2050195|-18000000|1732377723257
2033854|-18000000|1732377723297
2024830|-18000000|1732377723337
2017651|-18000000|1732377723377
2015710|-18000000|1732377723417
2018632|-18000000|1732377723457
2021489|-18000000|1732377723497
2031089|-18000000|1732377723537
2049113|-18000000|1732377723577
2046485|-18000000|1732377723617
2038246|-18000000|1732377723657
2023499|-18000000|1732377723697
2006563|-18000000|1732377723737
1981302|-18000000|1732377723777
1975798|-18000000|1732377723817
1957489|-18000000|1732377723857
1930657|-18000000|1732377723897
1898502|-18000000|1732377723937
1870723|-18000000|1732377723977
1850154|-18000000|1732377724017
1835036|-18000000|1732377724057
1834273|-18000000|1732377724097
1828521|-18000000|1732377724137
1837986|-18000000|1732377724177
1848281|-18000000|1732377724217
1854508|-18000000|1732377724257
1848915|-18000000|1732377724297
1849241|-18000000|1732377724337
1849791|-18000000|1732377724377
1847434|-18000000|1732377724417
1847391|-18000000|1732377724457
1842382|-18000000|1732377724497
1844383|-18000000|1732377724537
1847101|-18000000|1732377724577
1852387|-18000000|1732377724617
1862707|-18000000|1732377724657
1876034|-18000000|1732377724697
1872072|-18000000|1732377724737
1872928|-18000000|1732377724777
1860103|-18000000|1732377724817
1844629|-18000000|1732377724857
1839576|-18000000|1732377724897
1834890|-18000000|1732377724937
1825882|-18000000|1732377724977
1809247|-18000000|1732377725017
1793016|-18000000|1732377725041
1784859|-18000000|1732377725080
1778157|-18000000|1732377725120
1771964|-18000000|1732377725160
1769136|-18000000|1732377725201
1765473|-18000000|1732377725240
1761702|-18000000|1732377725280
1758835|-18000000|1732377725320
1756238|-18000000|1732377725361
1753266|-18000000|1732377725400
1749611|-18000000|1732377725440
1748609|-18000000|1732377725480
1754206|-18000000|1732377725521
1771536|-18000000|1732377725561
1795681|-18000000|1732377725601
1810139|-18000000|1732377725641
1820802|-18000000|1732377725682
1826156|-18000000|1732377725722
1827182|-18000000|1732377725762
1827417|-18000000|1732377725803
1826829|-18000000|1732377725843
1825863|-18000000|1732377725883
1824839|-18000000|1732377725923
1825609|-18000000|1732377725963
1826814|-18000000|1732377726004
1826321|-18000000|1732377726043
1824865|-18000000|1732377726083
1823371|-18000000|1732377726124
1821014|-18000000|1732377726165
1817127|-18000000|1732377726204
1811790|-18000000|1732377726244
1806152|-18000000|1732377726284
1799108|-18000000|1732377726325
1786837|-18000000|1732377726365
1766052|-18000000|1732377726405
1752648|-18000000|1732377726445
1771841|-18000000|1732377726486
1798543|-18000000|1732377726525
1818303|-18000000|1732377726565
1846121|-18000000|1732377726606
1879504|-18000000|1732377726647
1903021|-18000000|1732377726686
1925415|-18000000|1732377726726
1949935|-18000000|1732377726766
1967680|-18000000|1732377726807
1977256|-18000000|1732377726846
1989120|-18000000|1732377726886
2002543|-18000000|1732377726926
2020305|-18000000|1732377726966
2040684|-18000000|1732377727007
2059452|-18000000|1732377727046
2076627|-18000000|1732377727086
2089355|-18000000|1732377727126
2100739|-18000000|1732377727167
2111198|-18000000|1732377727206
2117833|-18000000|1732377727246
2121740|-18000000|1732377727286
2124894|-18000000|1732377727326
2123633|-18000000|1732377727366
2125359|-18000000|1732377727406
2130814|-18000000|1732377727446
2139341|-18000000|1732377727486
2102785|-18000000|1732377727526
2050539|-18000000|1732377727566
2080604|-18000000|1732377727606
2011172|-18000000|1732377727646
1952723|-18000000|1732377727686
1930904|-18000000|1732377727726
1918958|-18000000|1732377727766
1900970|-18000000|1732377727807
1890858|-18000000|1732377727846
1858536|-18000000|1732377727886
1884588|-18000000|1732377727926
1898891|-18000000|1732377727966
1902379|-18000000|1732377728006
1917042|-18000000|1732377728046
1929090|-18000000|1732377728086
1927863|-18000000|1732377728126
1931423|-18000000|1732377728165
1950851|-18000000|1732377728206
1963886|-18000000|1732377728245
1965761|-18000000|1732377728286
1984466|-18000000|1732377728325
2010673|-18000000|1732377728365
2032910|-18000000|1732377728406
2040395|-18000000|1732377728446
2045190|-18000000|1732377728485
2044358|-18000000|1732377728525
2043966|-18000000|1732377728565
2065206|-18000000|1732377728606
2084437|-18000000|1732377728645
2090180|-18000000|1732377728685
2101355|-18000000|1732377728725
2064111|-18000000|1732377728766
2028171|-18000000|1732377728805
2038116|-18000000|1732377728845
2073128|-18000000|1732377728885
2146741|-18000000|1732377728926
2174933|-18000000|1732377728965
2189574|-18000000|1732377729005
2174734|-18000000|1732377729045
2177245|-18000000|1732377729085
2173469|-18000000|1732377729125
2127044|-18000000|1732377729165
2051999|-18000000|1732377729205
2032146|-18000000|1732377729245
2027851|-18000000|1732377729285
1991153|-18000000|1732377729325
1970509|-18000000|1732377729365
1967015|-18000000|1732377729406
1971850|-18000000|1732377729444
1975171|-18000000|1732377729484
1989849|-18000000|1732377729524
1990066|-18000000|1732377729565
2002307|-18000000|1732377729605
2019877|-18000000|1732377729644
2021834|-18000000|1732377729684
2021682|-18000000|1732377729725
2046296|-18000000|1732377729764
2055152|-18000000|1732377729804
2069320|-18000000|1732377729844
2081095|-18000000|1732377729885
2103732|-18000000|1732377729924
2129269|-18000000|1732377729964
2164091|-18000000|1732377730004
2173703|-18000000|1732377730045
2168095|-18000000|1732377730084
2165545|-18000000|1732377730124
2164274|-18000000|1732377730164
2165309|-18000000|1732377730205
2169886|-18000000|1732377730244
2174623|-18000000|1732377730284
2179966|-18000000|1732377730324
2177042|-18000000|1732377730364
2177481|-18000000|1732377730404
2175270|-18000000|1732377730444
2173929|-18000000|1732377730484
2169182|-18000000|1732377730524
2170304|-18000000|1732377730564
2170860|-18000000|1732377730604
2169670|-18000000|1732377730643
2170693|-18000000|1732377730684
2170650|-18000000|1732377730723
2174375|-18000000|1732377730763
2184561|-18000000|1732377730803
2169775|-18000000|1732377730844
2182853|-18000000|1732377730883
2197516|-18000000|1732377730923
2198728|-18000000|1732377730963
2197380|-18000000|1732377731004
2195710|-18000000|1732377731043
2193970|-18000000|1732377731083
2193062|-18000000|1732377731123
2194198|-18000000|1732377731163
2193991|-18000000|1732377731203
2193555|-18000000|1732377731243
2194390|-18000000|1732377731283
2196987|-18000000|1732377731323
2202485|-18000000|1732377731363
2207514|-18000000|1732377731403
2209115|-18000000|1732377731443
2213051|-18000000|1732377731483
2216295|-18000000|1732377731523
2222276|-18000000|1732377731563
2225528|-18000000|1732377731603
2228825|-18000000|1732377731643
2231557|-18000000|1732377731682
2234236|-18000000|1732377731722
2236589|-18000000|1732377731762
2239528|-18000000|1732377731803
2243097|-18000000|1732377731842
2245556|-18000000|1732377731882
2248052|-18000000|1732377731922
2252113|-18000000|1732377731963
2257815|-18000000|1732377732002
2263109|-18000000|1732377732042
2267846|-18000000|1732377732082
2273042|-18000000|1732377732123
2277428|-18000000|1732377732162
2281176|-18000000|1732377732202
2285532|-18000000|1732377732242
2288189|-18000000|1732377732283
2290447|-18000000|1732377732322
2292450|-18000000|1732377732362
2294902|-18000000|1732377732402
2297156|-18000000|1732377732442
2298872|-18000000|1732377732482
2300664|-18000000|1732377732522
2301770|-18000000|1732377732562
2302731|-18000000|1732377732602
2304071|-18000000|1732377732642
2304292|-18000000|1732377732681
2305162|-18000000|1732377732721
2305566|-18000000|1732377732762
2305097|-18000000|1732377732802
2304517|-18000000|1732377732841
2301736|-18000000|1732377732881
2299715|-18000000|1732377732922
2299235|-18000000|1732377732961
2298763|-18000000|1732377733002
2299371|-18000000|1732377733041
2300180|-18000000|1732377733082
2300983|-18000000|1732377733121
2301288|-18000000|1732377733161
2300928|-18000000|1732377733201
2299512|-18000000|1732377733242
2298598|-18000000|1732377733281
2297935|-18000000|1732377733321
2298099|-18000000|1732377733361
2298062|-18000000|1732377733402
2297579|-18000000|1732377733441
2296188|-18000000|1732377733481
2295339|-18000000|1732377733521
2294062|-18000000|1732377733561
2293523|-18000000|1732377733601
2293118|-18000000|1732377733641
2292241|-18000000|1732377733681
2292853|-18000000|1732377733721
2293273|-18000000|1732377733760
2292768|-18000000|1732377733801
2291427|-18000000|1732377733840
2290625|-18000000|1732377733880
2289916|-18000000|1732377733920
2288158|-18000000|1732377733960
2286112|-18000000|1732377734001
2285122|-18000000|1732377734040
2285034|-18000000|1732377734080
2284911|-18000000|1732377734120
2283922|-18000000|1732377734160
2283121|-18000000|1732377734201
2282383|-18000000|1732377734240
2282242|-18000000|1732377734280
2283252|-18000000|1732377734320
2284765|-18000000|1732377734360
2285677|-18000000|1732377734400
2287594|-18000000|1732377734440
2290728|-18000000|1732377734480
2295973|-18000000|1732377734520
2306306|-18000000|1732377734561
2303974|-18000000|1732377734600
2293690|-18000000|1732377734640
2281977|-18000000|1732377734680
2260558|-18000000|1732377734722
2253029|-18000000|1732377734760
2257958|-18000000|1732377734801
2262584|-18000000|1732377734841
2269580|-18000000|1732377734883
2281977|-18000000|1732377734921
2291181|-18000000|1732377734961
2279754|-18000000|1732377735002
2254750|-18000000|1732377735045
2236063|-18000000|1732377735083
2210132|-18000000|1732377735123
2215641|-18000000|1732377735164
2224318|-18000000|1732377735206
2229431|-18000000|1732377735244
2237081|-18000000|1732377735285
2246533|-18000000|1732377735325
2255355|-18000000|1732377735368
2262405|-18000000|1732377735406
2265780|-18000000|1732377735446
2263139|-18000000|1732377735486
2263696|-18000000|1732377735528
2266700|-18000000|1732377735566
2268999|-18000000|1732377735606
2280979|-18000000|1732377735646
2278061|-18000000|1732377735689
2255797|-18000000|1732377735726
2212765|-18000000|1732377735767
2207894|-18000000|1732377735807
2216934|-18000000|1732377735849
2291183|-18000000|1732377735887
2334586|-18000000|1732377735927
2344608|-18000000|1732377735967
2334626|-18000000|1732377736011
2294139|-18000000|1732377736048
2193490|-18000000|1732377736088
2104398|-18000000|1732377736128
2063307|-18000000|1732377736170
2054162|-18000000|1732377736209
2055682|-18000000|1732377736249
2067594|-18000000|1732377736289
2100926|-18000000|1732377736332
2139567|-18000000|1732377736369
2167946|-18000000|1732377736410
2218573|-18000000|1732377736450
2244993|-18000000|1732377736492
2258719|-18000000|1732377736530
2258659|-18000000|1732377736570
2260580|-18000000|1732377736611
2255635|-18000000|1732377736653
2240383|-18000000|1732377736691
2217302|-18000000|1732377736732
2228357|-18000000|1732377736772
2251899|-18000000|1732377736814
2289871|-18000000|1732377736852
2314042|-18000000|1732377736892
2310406|-18000000|1732377736933
2290462|-18000000|1732377736976
2225410|-18000000|1732377737014
2133577|-18000000|1732377737054
2055729|-18000000|1732377737094
2050015|-18000000|1732377737134
2069304|-18000000|1732377737174
2098175|-18000000|1732377737214
2156976|-18000000|1732377737254
2297400|-18000000|1732377737294
2244388|-18000000|1732377737334
2237452|-18000000|1732377737374
2256573|-18000000|1732377737414
2250771|-18000000|1732377737454
2250305|-18000000|1732377737494
2253016|-18000000|1732377737534
2253809|-18000000|1732377737574
2234849|-18000000|1732377737614
2196228|-18000000|1732377737654
2181757|-18000000|1732377737694
2180953|-18000000|1732377737734
2177693|-18000000|1732377737774
2206235|-18000000|1732377737814
2194527|-18000000|1732377737854
2244161|-18000000|1732377737894
2289313|-18000000|1732377737934
2305800|-18000000|1732377737974
2235090|-18000000|1732377738014
2155435|-18000000|1732377738054
2072305|-18000000|1732377738094
2028178|-18000000|1732377738134
2044829|-18000000|1732377738174
2113721|-18000000|1732377738214
2139044|-18000000|1732377738254
2307927|-18000000|1732377738294
2202019|-18000000|1732377738334
2177545|-18000000|1732377738374
2214819|-18000000|1732377738414
2184461|-18000000|1732377738454
2100844|-18000000|1732377738494
2076091|-18000000|1732377738534
2087825|-18000000|1732377738574
2096995|-18000000|1732377738614
2083909|-18000000|1732377738654
2051507|-18000000|1732377738694
2147797|-18000000|1732377738734
2149119|-18000000|1732377738774
2159326|-18000000|1732377738814
2190005|-18000000|1732377738854
2200255|-18000000|1732377738894
2155830|-18000000|1732377738934
2048148|-18000000|1732377738974
2009977|-18000000|1732377739014
2014558|-18000000|1732377739054
2013128|-18000000|1732377739094
2041098|-18000000|1732377739134
2093610|-18000000|1732377739174
2127035|-18000000|1732377739214
2206654|-18000000|1732377739254
2172802|-18000000|1732377739294
2195921|-18000000|1732377739334
2201746|-18000000|1732377739374
2216568|-18000000|1732377739414
2222455|-18000000|1732377739454
2229206|-18000000|1732377739494
2232033|-18000000|1732377739534
2235083|-18000000|1732377739574
2239302|-18000000|1732377739614
2245843|-18000000|1732377739654
2253245|-18000000|1732377739694
2247526|-18000000|1732377739734
2232040|-18000000|1732377739774
2195442|-18000000|1732377739814
2169661|-18000000|1732377739854
2154554|-18000000|1732377739894
2139446|-18000000|1732377739934
2130628|-18000000|1732377739974
2121319|-18000000|1732377740014
2113003|-18000000|1732377740054
2098950|-18000000|1732377740094
2085229|-18000000|1732377740134
2072444|-18000000|1732377740174
2057401|-18000000|1732377740214
2041419|-18000000|1732377740254
2031106|-18000000|1732377740294
2023908|-18000000|1732377740334
2014056|-18000000|1732377740374
2006600|-18000000|1732377740414
2002976|-18000000|1732377740454
1998947|-18000000|1732377740494
1995723|-18000000|1732377740534
1996821|-18000000|1732377740574
1994572|-18000000|1732377740614
1999766|-18000000|1732377740654
2017100|-18000000|1732377740694
2032457|-18000000|1732377740734
2042263|-18000000|1732377740774
2054291|-18000000|1732377740814
2064336|-18000000|1732377740854
2064781|-18000000|1732377740894
2056535|-18000000|1732377740934
2035328|-18000000|1732377740974
1992003|-18000000|1732377741014
1994189|-18000000|1732377741054
1984649|-18000000|1732377741094
1989988|-18000000|1732377741134
1970522|-18000000|1732377741174
1946138|-18000000|1732377741214
1978785|-18000000|1732377741254
2031294|-18000000|1732377741294
2044179|-18000000|1732377741334
2012064|-18000000|1732377741374
1992454|-18000000|1732377741414
1986770|-18000000|1732377741454
1974850|-18000000|1732377741494
1966084|-18000000|1732377741534
1954325|-18000000|1732377741574
1922224|-18000000|1732377741614
1910699|-18000000|1732377741654
1913746|-18000000|1732377741694
1911036|-18000000|1732377741734
1911248|-18000000|1732377741774
1913853|-18000000|1732377741814
1908905|-18000000|1732377741854
1909189|-18000000|1732377741894
1902976|-18000000|1732377741934
1896760|-18000000|1732377741974
1893974|-18000000|1732377742014
1885966|-18000000|1732377742054
1886315|-18000000|1732377742094
1892345|-18000000|1732377742134
1901921|-18000000|1732377742174
1914352|-18000000|1732377742214
1924758|-18000000|1732377742254
1933962|-18000000|1732377742294
1937016|-18000000|1732377742334
1931086|-18000000|1732377742374
1924510|-18000000|1732377742414
1923192|-18000000|1732377742454
1922421|-18000000|1732377742494
1913228|-18000000|1732377742534
1909258|-18000000|1732377742574
1907845|-18000000|1732377742614
1908352|-18000000|1732377742654
1905093|-18000000|1732377742694
1902396|-18000000|1732377742734
1906148|-18000000|1732377742774
1923923|-18000000|1732377742814
1934260|-18000000|1732377742854
1944827|-18000000|1732377742894
1960138|-18000000|1732377742934
1964632|-18000000|1732377742974
1968088|-18000000|1732377743014
1971194|-18000000|1732377743054
1958069|-18000000|1732377743094
1923381|-18000000|1732377743134
1868901|-18000000|1732377743174
1844571|-18000000|1732377743214
1840606|-18000000|1732377743254
1827775|-18000000|1732377743294
1822613|-18000000|1732377743334
1817189|-18000000|1732377743374
1833773|-18000000|1732377743414
1861430|-18000000|1732377743454
1872842|-18000000|1732377743494
1864065|-18000000|1732377743534
1865291|-18000000|1732377743574
1866521|-18000000|1732377743614
1860978|-18000000|1732377743654
1856371|-18000000|1732377743694
1850206|-18000000|1732377743734
1842501|-18000000|1732377743774
1839700|-18000000|1732377743814
1825695|-18000000|1732377743854
1814250|-18000000|1732377743894
1817695|-18000000|1732377743934
1815137|-18000000|1732377743974
1810814|-18000000|1732377744014
1804397|-18000000|1732377744054
1802666|-18000000|1732377744094
1800756|-18000000|1732377744134
1807063|-18000000|1732377744174
1820996|-18000000|1732377744214
1826735|-18000000|1732377744254
1823705|-18000000|1732377744294
1822821|-18000000|1732377744334
1816160|-18000000|1732377744374
1804153|-18000000|1732377744414
1803848|-18000000|1732377744454
1799812|-18000000|1732377744494
1797738|-18000000|1732377744534
1795780|-18000000|1732377744574
1791033|-18000000|1732377744614
1789235|-18000000|1732377744654
1788591|-18000000|1732377744694
1788204|-18000000|1732377744734
1785888|-18000000|1732377744774
1783578|-18000000|1732377744814
1782332|-18000000|1732377744854
1780797|-18000000|1732377744894
1776575|-18000000|1732377744934
1770996|-18000000|1732377744974
1766741|-18000000|1732377745014
1761489|-18000000|1732377745054
1758720|-18000000|1732377745094
1754102|-18000000|1732377745134
1752116|-18000000|1732377745174
1750934|-18000000|1732377745214
1752206|-18000000|1732377745254
1753594|-18000000|1732377745294
1753289|-18000000|1732377745334
1751344|-18000000|1732377745374
1750905|-18000000|1732377745414
1750091|-18000000|1732377745454
1750676|-18000000|1732377745494
1751764|-18000000|1732377745534
1750917|-18000000|1732377745574
1750264|-18000000|1732377745614
1748489|-18000000|1732377745654
1745913|-18000000|1732377745694
1744589|-18000000|1732377745734
1743413|-18000000|1732377745774
1742082|-18000000|1732377745814
1741256|-18000000|1732377745854
1740647|-18000000|1732377745894
1740642|-18000000|1732377745934
1740471|-18000000|1732377745974
1739529|-18000000|1732377746014
1739796|-18000000|1732377746054
1739758|-18000000|1732377746094
1739583|-18000000|1732377746134
1740638|-18000000|1732377746174
1740625|-18000000|1732377746214
1740092|-18000000|1732377746254
1739970|-18000000|1732377746294
1739351|-18000000|1732377746334
1738659|-18000000|1732377746374
1737870|-18000000|1732377746414
1734338|-18000000|1732377746454
1731591|-18000000|1732377746494
1729639|-18000000|1732377746534
1729180|-18000000|1732377746574
1728435|-18000000|1732377746614
1727539|-18000000|1732377746654
1726633|-18000000|1732377746694
1725474|-18000000|1732377746734
1725082|-18000000|1732377746774
1725425|-18000000|1732377746814
1726162|-18000000|1732377746854
1725218|-18000000|1732377746894
1723873|-18000000|1732377746934
1721843|-18000000|1732377746974
1720145|-18000000|1732377747014
1718484|-18000000|1732377747054
1716710|-18000000|1732377747094
1714904|-18000000|1732377747134
1713883|-18000000|1732377747174
1712918|-18000000|1732377747214
1712336|-18000000|1732377747254
1712190|-18000000|1732377747294
1712567|-18000000|1732377747334
1712812|-18000000|1732377747374
1712515|-18000000|1732377747414
1711192|-18000000|1732377747454
1709564|-18000000|1732377747494
1708488|-18000000|1732377747534
1707222|-18000000|1732377747574
1704854|-18000000|1732377747614
1702469|-18000000|1732377747654
1700743|-18000000|1732377747694
1698766|-18000000|1732377747734
1696681|-18000000|1732377747774
1691971|-18000000|1732377747814
1689403|-18000000|1732377747854
1685792|-18000000|1732377747894
1682458|-18000000|1732377747934
1680997|-18000000|1732377747974
1679716|-18000000|1732377748014
1678866|-18000000|1732377748054
1677867|-18000000|1732377748094
1677459|-18000000|1732377748134
1680507|-18000000|1732377748174
1684132|-18000000|1732377748214
1685697|-18000000|1732377748254
1685170|-18000000|1732377748294
1686301|-18000000|1732377748334
1684561|-18000000|1732377748374
1681278|-18000000|1732377748414
1680007|-18000000|1732377748454
1679721|-18000000|1732377748494
1680009|-18000000|1732377748534
1679749|-18000000|1732377748574
1680242|-18000000|1732377748614
1678448|-18000000|1732377748654
1676877|-18000000|1732377748694
1676860|-18000000|1732377748734
1675759|-18000000|1732377748774
1674866|-18000000|1732377748814
1674390|-18000000|1732377748854
1674081|-18000000|1732377748894
1674607|-18000000|1732377748935
1673880|-18000000|1732377748976
1672912|-18000000|1732377749017
1671940|-18000000|1732377749055
1669933|-18000000|1732377749093
1667295|-18000000|1732377749131
1663281|-18000000|1732377749169
1658912|-18000000|1732377749207
1654519|-18000000|1732377749245
1650280|-18000000|1732377749283
1648744|-18000000|1732377749321
1649094|-18000000|1732377749359
1651701|-18000000|1732377749397
1653944|-18000000|1732377749435
1653250|-18000000|1732377749473
1653795|-18000000|1732377749511
1654154|-18000000|1732377749549
1652791|-18000000|1732377749587
1652183|-18000000|1732377749625
1652127|-18000000|1732377749663
1651585|-18000000|1732377749701
1650210|-18000000|1732377749739
1649050|-18000000|1732377749777
1647728|-18000000|1732377749815
1645198|-18000000|1732377749853
1644011|-18000000|1732377749891
1641289|-18000000|1732377749929
1639195|-18000000|1732377749967
1639528|-18000000|1732377750005
1638879|-18000000|1732377750043
1638822|-18000000|1732377750081
1638411|-18000000|1732377750119
1638484|-18000000|1732377750157
1637762|-18000000|1732377750195
1638671|-18000000|1732377750233
1639703|-18000000|1732377750271
1639468|-18000000|1732377750309
1638171|-18000000|1732377750347
1636390|-18000000|1732377750385
1634932|-18000000|1732377750423
1634305|-18000000|1732377750461
1634251|-18000000|1732377750499
1632957|-18000000|1732377750537
1631994|-18000000|1732377750575
1631305|-18000000|1732377750613
1629727|-18000000|1732377750651
1627710|-18000000|1732377750689
1624865|-18000000|1732377750727
1622989|-18000000|1732377750765
1620276|-18000000|1732377750803
