WEAR_PPG_GREEN
ppg|timeOffset|timestamp
679031|-18000000|1732201200021
678877|-18000000|1732201200061
684425|-18000000|1732201200101
678909|-18000000|1732201200141
678795|-18000000|1732201200181
678967|-18000000|1732201200221
679005|-18000000|1732201200261
678832|-18000000|1732201200301
678961|-18000000|1732201200341
678961|-18000000|1732201200381
678841|-18000000|1732201200421
677975|-18000000|1732201200461
678885|-18000000|1732201200501
678883|-18000000|1732201200541
683666|-18000000|1732201200581
679017|-18000000|1732201200621
678867|-18000000|1732201200661
678943|-18000000|1732201200701
678426|-18000000|1732201200741
678889|-18000000|1732201200781
678947|-18000000|1732201200821
678963|-18000000|1732201200861
678947|-18000000|1732201200901
679022|-18000000|1732201200941
678852|-18000000|1732201200981
678956|-18000000|1732201201021
678892|-18000000|1732201201061
673347|-18000000|1732201201101
678877|-18000000|1732201201141
678950|-18000000|1732201201181
678951|-18000000|1732201201221
673976|-18000000|1732201201261
678838|-18000000|1732201201301
678929|-18000000|1732201201341
678928|-18000000|1732201201381
681766|-18000000|1732201201421
678921|-18000000|1732201201461
678982|-18000000|1732201201501
678939|-18000000|1732201201541
678900|-18000000|1732201201581
678972|-18000000|1732201201621
678889|-18000000|1732201201661
678948|-18000000|1732201201701
678866|-18000000|1732201201741
673351|-18000000|1732201201781
678911|-18000000|1732201201821
678967|-18000000|1732201201861
678937|-18000000|1732201201901
673098|-18000000|1732201201941
678930|-18000000|1732201201981
678868|-18000000|1732201202021
678893|-18000000|1732201202061
683941|-18000000|1732201202101
678873|-18000000|1732201202141
678843|-18000000|1732201202181
678906|-18000000|1732201202221
678932|-18000000|1732201202261
678907|-18000000|1732201202301
678998|-18000000|1732201202341
678914|-18000000|1732201202381
678875|-18000000|1732201202421
672750|-18000000|1732201202461
678986|-18000000|1732201202501
678929|-18000000|1732201202541
678949|-18000000|1732201202581
676605|-18000000|1732201202621
678858|-18000000|1732201202661
678919|-18000000|1732201202701
678816|-18000000|1732201202741
679467|-18000000|1732201202781
678825|-18000000|1732201202821
679016|-18000000|1732201202861
678946|-18000000|1732201202901
678897|-18000000|1732201202941
678839|-18000000|1732201202981
678929|-18000000|1732201203021
678863|-18000000|1732201203061
678872|-18000000|1732201203101
676146|-18000000|1732201203141
678866|-18000000|1732201203181
678865|-18000000|1732201203221
678897|-18000000|1732201203261
683601|-18000000|1732201203301
678953|-18000000|1732201203341
678843|-18000000|1732201203381
678890|-18000000|1732201203421
684986|-18000000|1732201203461
678964|-18000000|1732201203501
678946|-18000000|1732201203541
678937|-18000000|1732201203581
678836|-18000000|1732201203621
678938|-18000000|1732201203661
678873|-18000000|1732201203701
678878|-18000000|1732201203741
678860|-18000000|1732201203781
681959|-18000000|1732201203821
678897|-18000000|1732201203861
678826|-18000000|1732201203901
678956|-18000000|1732201203941
677301|-18000000|1732201203981
678983|-18000000|1732201204021
678907|-18000000|1732201204061
678882|-18000000|1732201204101
680651|-18000000|1732201204141
678871|-18000000|1732201204181
678880|-18000000|1732201204221
678974|-18000000|1732201204261
678871|-18000000|1732201204301
678877|-18000000|1732201204341
678910|-18000000|1732201204381
678881|-18000000|1732201204421
678892|-18000000|1732201204461
679198|-18000000|1732201204501
678891|-18000000|1732201204541
678910|-18000000|1732201204581
679022|-18000000|1732201204621
672932|-18000000|1732201204661
678876|-18000000|1732201204701
678910|-18000000|1732201204741
678861|-18000000|1732201204781
678159|-18000000|1732201204821
678850|-18000000|1732201204861
678904|-18000000|1732201204901
678961|-18000000|1732201204941
678904|-18000000|1732201204981
678918|-18000000|1732201205021
678922|-18000000|1732201205061
678926|-18000000|1732201205101
678935|-18000000|1732201205141
674321|-18000000|1732201205181
678976|-18000000|1732201205221
678897|-18000000|1732201205261
678915|-18000000|1732201205301
684623|-18000000|1732201205341
679013|-18000000|1732201205381
678975|-18000000|1732201205421
678936|-18000000|1732201205461
681421|-18000000|1732201205501
678852|-18000000|1732201205541
678865|-18000000|1732201205581
678903|-18000000|1732201205621
678891|-18000000|1732201205661
678828|-18000000|1732201205701
678874|-18000000|1732201205741
678928|-18000000|1732201205781
678835|-18000000|1732201205821
680506|-18000000|1732201205861
678919|-18000000|1732201205901
678883|-18000000|1732201205941
678930|-18000000|1732201205981
678767|-18000000|1732201206021
678914|-18000000|1732201206061
678835|-18000000|1732201206101
684934|-18000000|1732201206141
678936|-18000000|1732201206181
678846|-18000000|1732201206221
678949|-18000000|1732201206261
678913|-18000000|1732201206301
678966|-18000000|1732201206341
678788|-18000000|1732201206381
678929|-18000000|1732201206421
678838|-18000000|1732201206461
684696|-18000000|1732201206501
678950|-18000000|1732201206541
678927|-18000000|1732201206581
678900|-18000000|1732201206621
676584|-18000000|1732201206661
678898|-18000000|1732201206701
678927|-18000000|1732201206741
679014|-18000000|1732201206781
684768|-18000000|1732201206821
678823|-18000000|1732201206861
678864|-18000000|1732201206901
678881|-18000000|1732201206941
678899|-18000000|1732201206981
678895|-18000000|1732201207021
678969|-18000000|1732201207061
678836|-18000000|1732201207101
678894|-18000000|1732201207141
672468|-18000000|1732201207181
678917|-18000000|1732201207221
678838|-18000000|1732201207261
678906|-18000000|1732201207301
675553|-18000000|1732201207341
678986|-18000000|1732201207381
678817|-18000000|1732201207421
678849|-18000000|1732201207461
675673|-18000000|1732201207501
678871|-18000000|1732201207541
678964|-18000000|1732201207581
678896|-18000000|1732201207621
678888|-18000000|1732201207661
678913|-18000000|1732201207701
678819|-18000000|1732201207741
678927|-18000000|1732201207781
678919|-18000000|1732201207821
673196|-18000000|1732201207861
678957|-18000000|1732201207901
678886|-18000000|1732201207941
678946|-18000000|1732201207981
682007|-18000000|1732201208021
678944|-18000000|1732201208061
678817|-18000000|1732201208101
678947|-18000000|1732201208141
674162|-18000000|1732201208181
678996|-18000000|1732201208221
678833|-18000000|1732201208261
678895|-18000000|1732201208301
678914|-18000000|1732201208341
678946|-18000000|1732201208381
678836|-18000000|1732201208421
678950|-18000000|1732201208461
678854|-18000000|1732201208501
683889|-18000000|1732201208541
678915|-18000000|1732201208581
678848|-18000000|1732201208621
678904|-18000000|1732201208661
678165|-18000000|1732201208701
678844|-18000000|1732201208741
678937|-18000000|1732201208781
678873|-18000000|1732201208821
684981|-18000000|1732201208861
678917|-18000000|1732201208901
678710|-18000000|1732201208941
678838|-18000000|1732201208981
678826|-18000000|1732201209021
678887|-18000000|1732201209061
678868|-18000000|1732201209101
678879|-18000000|1732201209141
678939|-18000000|1732201209181
672674|-18000000|1732201209221
678892|-18000000|1732201209261
678851|-18000000|1732201209301
678974|-18000000|1732201209341
682727|-18000000|1732201209381
678887|-18000000|1732201209421
678895|-18000000|1732201209461
678879|-18000000|1732201209501
677263|-18000000|1732201209541
678828|-18000000|1732201209581
678834|-18000000|1732201209621
678826|-18000000|1732201209661
678877|-18000000|1732201209701
678777|-18000000|1732201209741
678888|-18000000|1732201209781
678802|-18000000|1732201209821
678825|-18000000|1732201209861
672622|-18000000|1732201209901
678862|-18000000|1732201209941
678849|-18000000|1732201209981
678889|-18000000|1732201210021
674111|-18000000|1732201210061
678834|-18000000|1732201210101
678915|-18000000|1732201210141
678830|-18000000|1732201210181
680129|-18000000|1732201210221
678872|-18000000|1732201210261
678645|-18000000|1732201210301
678965|-18000000|1732201210341
678841|-18000000|1732201210381
678813|-18000000|1732201210421
678876|-18000000|1732201210461
678827|-18000000|1732201210501
678865|-18000000|1732201210541
685270|-18000000|1732201210581
678931|-18000000|1732201210621
678833|-18000000|1732201210661
678945|-18000000|1732201210701
675182|-18000000|1732201210741
678848|-18000000|1732201210781
678830|-18000000|1732201210821
678745|-18000000|1732201210861
677091|-18000000|1732201210901
678900|-18000000|1732201210941
678903|-18000000|1732201210981
678903|-18000000|1732201211021
678717|-18000000|1732201211061
678856|-18000000|1732201211101
678896|-18000000|1732201211141
678912|-18000000|1732201211181
678864|-18000000|1732201211221
679747|-18000000|1732201211261
678867|-18000000|1732201211301
678860|-18000000|1732201211341
678839|-18000000|1732201211381
683095|-18000000|1732201211421
678867|-18000000|1732201211461
678795|-18000000|1732201211501
678922|-18000000|1732201211541
684541|-18000000|1732201211581
678837|-18000000|1732201211621
678885|-18000000|1732201211661
676142|-18000000|1732201211701
678855|-18000000|1732201211741
678864|-18000000|1732201211781
678955|-18000000|1732201211821
678802|-18000000|1732201211861
673874|-18000000|1732201211901
678820|-18000000|1732201211941
678869|-18000000|1732201211981
678897|-18000000|1732201212021
676185|-18000000|1732201212061
678897|-18000000|1732201212101
678898|-18000000|1732201212141
678901|-18000000|1732201212181
684940|-18000000|1732201212221
678800|-18000000|1732201212261
678892|-18000000|1732201212301
678901|-18000000|1732201212341
676862|-18000000|1732201212381
678920|-18000000|1732201212421
678899|-18000000|1732201212461
678867|-18000000|1732201212501
678858|-18000000|1732201212541
672833|-18000000|1732201212581
678824|-18000000|1732201212621
678850|-18000000|1732201212661
678864|-18000000|1732201212701
682954|-18000000|1732201212741
678895|-18000000|1732201212781
678880|-18000000|1732201212821
678819|-18000000|1732201212861
679215|-18000000|1732201212901
678874|-18000000|1732201212941
678895|-18000000|1732201212981
678886|-18000000|1732201213021
678265|-18000000|1732201213061
678918|-18000000|1732201213101
678799|-18000000|1732201213141
678832|-18000000|1732201213181
678894|-18000000|1732201213221
674236|-18000000|1732201213261
678879|-18000000|1732201213301
678805|-18000000|1732201213341
678860|-18000000|1732201213381
673240|-18000000|1732201213421
678929|-18000000|1732201213461
678806|-18000000|1732201213501
678845|-18000000|1732201213541
679532|-18000000|1732201213581
678924|-18000000|1732201213621
678934|-18000000|1732201213661
678854|-18000000|1732201213701
675018|-18000000|1732201213741
678933|-18000000|1732201213781
678868|-18000000|1732201213821
678791|-18000000|1732201213861
678874|-18000000|1732201213901
672666|-18000000|1732201213941
678910|-18000000|1732201213981
678874|-18000000|1732201214021
678796|-18000000|1732201214061
673107|-18000000|1732201214101
678873|-18000000|1732201214141
678806|-18000000|1732201214181
678909|-18000000|1732201214221
684146|-18000000|1732201214261
678806|-18000000|1732201214301
678848|-18000000|1732201214341
678856|-18000000|1732201214381
673387|-18000000|1732201214421
678902|-18000000|1732201214461
678872|-18000000|1732201214501
678866|-18000000|1732201214541
678818|-18000000|1732201214581
678874|-18000000|1732201214621
678951|-18000000|1732201214661
678886|-18000000|1732201214701
678877|-18000000|1732201214741
677131|-18000000|1732201214781
678883|-18000000|1732201214821
678816|-18000000|1732201214861
678769|-18000000|1732201214901
684831|-18000000|1732201214941
678869|-18000000|1732201214981
678872|-18000000|1732201215021
678854|-18000000|1732201215061
684756|-18000000|1732201215101
678756|-18000000|1732201215141
678869|-18000000|1732201215181
678859|-18000000|1732201215221
678888|-18000000|1732201215261
678817|-18000000|1732201215301
678937|-18000000|1732201215341
678786|-18000000|1732201215381
678864|-18000000|1732201215421
680554|-18000000|1732201215461
678839|-18000000|1732201215501
678892|-18000000|1732201215541
678804|-18000000|1732201215581
684900|-18000000|1732201215621
678869|-18000000|1732201215661
678881|-18000000|1732201215701
678851|-18000000|1732201215741
673518|-18000000|1732201215781
678882|-18000000|1732201215821
678857|-18000000|1732201215861
678841|-18000000|1732201215901
678859|-18000000|1732201215941
678838|-18000000|1732201215981
678895|-18000000|1732201216021
678899|-18000000|1732201216061
678899|-18000000|1732201216101
672462|-18000000|1732201216141
678858|-18000000|1732201216181
678815|-18000000|1732201216221
678860|-18000000|1732201216261
685054|-18000000|1732201216301
678903|-18000000|1732201216341
678900|-18000000|1732201216381
678776|-18000000|1732201216421
683750|-18000000|1732201216461
678877|-18000000|1732201216501
678818|-18000000|1732201216541
678883|-18000000|1732201216581
678903|-18000000|1732201216621
678797|-18000000|1732201216661
678836|-18000000|1732201216701
678907|-18000000|1732201216741
678966|-18000000|1732201216781
679474|-18000000|1732201216821
678899|-18000000|1732201216861
678838|-18000000|1732201216901
673765|-18000000|1732201216941
678900|-18000000|1732201216981
678865|-18000000|1732201217021
678784|-18000000|1732201217061
675340|-18000000|1732201217101
678897|-18000000|1732201217141
678829|-18000000|1732201217181
678850|-18000000|1732201217221
678928|-18000000|1732201217261
678906|-18000000|1732201217301
678837|-18000000|1732201217341
678844|-18000000|1732201217381
678807|-18000000|1732201217421
683047|-18000000|1732201217461
678853|-18000000|1732201217501
678839|-18000000|1732201217541
678880|-18000000|1732201217581
676057|-18000000|1732201217621
678936|-18000000|1732201217661
678754|-18000000|1732201217701
678795|-18000000|1732201217741
684120|-18000000|1732201217781
678859|-18000000|1732201217821
678901|-18000000|1732201217861
678835|-18000000|1732201217901
678904|-18000000|1732201217941
678870|-18000000|1732201217981
678894|-18000000|1732201218021
678903|-18000000|1732201218061
678909|-18000000|1732201218101
684325|-18000000|1732201218141
678930|-18000000|1732201218181
678814|-18000000|1732201218221
678937|-18000000|1732201218261
672958|-18000000|1732201218301
678937|-18000000|1732201218341
678919|-18000000|1732201218381
678829|-18000000|1732201218421
672841|-18000000|1732201218461
678846|-18000000|1732201218501
678902|-18000000|1732201218541
678939|-18000000|1732201218581
678898|-18000000|1732201218621
678727|-18000000|1732201218661
678904|-18000000|1732201218701
678906|-18000000|1732201218741
678748|-18000000|1732201218781
673607|-18000000|1732201218821
678896|-18000000|1732201218861
678843|-18000000|1732201218901
678859|-18000000|1732201218941
678216|-18000000|1732201218981
678932|-18000000|1732201219021
678885|-18000000|1732201219061
678786|-18000000|1732201219101
684718|-18000000|1732201219141
678854|-18000000|1732201219181
678841|-18000000|1732201219221
678909|-18000000|1732201219261
678867|-18000000|1732201219301
678806|-18000000|1732201219341
678882|-18000000|1732201219381
678793|-18000000|1732201219421
678827|-18000000|1732201219461
672721|-18000000|1732201219501
678899|-18000000|1732201219541
678790|-18000000|1732201219581
678730|-18000000|1732201219621
673035|-18000000|1732201219661
678866|-18000000|1732201219701
678815|-18000000|1732201219741
678862|-18000000|1732201219781
684438|-18000000|1732201219821
678783|-18000000|1732201219861
678769|-18000000|1732201219901
678766|-18000000|1732201219941
678820|-18000000|1732201219982
678924|-18000000|1732201220023
678912|-18000000|1732201220062
678797|-18000000|1732201220101
678905|-18000000|1732201220140
674505|-18000000|1732201220179
678835|-18000000|1732201220219
678905|-18000000|1732201220259
678844|-18000000|1732201220299
682763|-18000000|1732201220339
678780|-18000000|1732201220379
678846|-18000000|1732201220419
678887|-18000000|1732201220459
682583|-18000000|1732201220499
678909|-18000000|1732201220539
678838|-18000000|1732201220579
678870|-18000000|1732201220619
678808|-18000000|1732201220659
678876|-18000000|1732201220699
678802|-18000000|1732201220739
678821|-18000000|1732201220779
678868|-18000000|1732201220819
680715|-18000000|1732201220859
678857|-18000000|1732201220899
678866|-18000000|1732201220939
678875|-18000000|1732201220979
673650|-18000000|1732201221019
678823|-18000000|1732201221059
678856|-18000000|1732201221099
678806|-18000000|1732201221139
678952|-18000000|1732201221179
678920|-18000000|1732201221219
678875|-18000000|1732201221259
678753|-18000000|1732201221299
678844|-18000000|1732201221339
678892|-18000000|1732201221379
678868|-18000000|1732201221419
678843|-18000000|1732201221459
678697|-18000000|1732201221499
684902|-18000000|1732201221539
678771|-18000000|1732201221579
678903|-18000000|1732201221619
678850|-18000000|1732201221659
675537|-18000000|1732201221699
678830|-18000000|1732201221739
678819|-18000000|1732201221779
678773|-18000000|1732201221819
681690|-18000000|1732201221859
678940|-18000000|1732201221899
678746|-18000000|1732201221939
678929|-18000000|1732201221979
678834|-18000000|1732201222019
678841|-18000000|1732201222059
678830|-18000000|1732201222099
678817|-18000000|1732201222139
678808|-18000000|1732201222179
679702|-18000000|1732201222219
678849|-18000000|1732201222259
678762|-18000000|1732201222299
678739|-18000000|1732201222339
678887|-18000000|1732201222379
678915|-18000000|1732201222419
678835|-18000000|1732201222459
684849|-18000000|1732201222499
678917|-18000000|1732201222539
678811|-18000000|1732201222579
678766|-18000000|1732201222619
678811|-18000000|1732201222659
678817|-18000000|1732201222699
678828|-18000000|1732201222739
678821|-18000000|1732201222779
678807|-18000000|1732201222819
672775|-18000000|1732201222859
678813|-18000000|1732201222899
678724|-18000000|1732201222939
678821|-18000000|1732201222979
684100|-18000000|1732201223019
678800|-18000000|1732201223059
678828|-18000000|1732201223099
678735|-18000000|1732201223139
681630|-18000000|1732201223179
678838|-18000000|1732201223219
678818|-18000000|1732201223259
678776|-18000000|1732201223299
678851|-18000000|1732201223339
678761|-18000000|1732201223379
678753|-18000000|1732201223419
678918|-18000000|1732201223459
678696|-18000000|1732201223499
683054|-18000000|1732201223539
678832|-18000000|1732201223579
678861|-18000000|1732201223619
678780|-18000000|1732201223659
682844|-18000000|1732201223699
678765|-18000000|1732201223739
678916|-18000000|1732201223779
678875|-18000000|1732201223819
673447|-18000000|1732201223859
678848|-18000000|1732201223899
678755|-18000000|1732201223939
678794|-18000000|1732201223979
678814|-18000000|1732201224019
678753|-18000000|1732201224059
678776|-18000000|1732201224099
678812|-18000000|1732201224139
678869|-18000000|1732201224179
684783|-18000000|1732201224219
678881|-18000000|1732201224259
678792|-18000000|1732201224299
678797|-18000000|1732201224339
678136|-18000000|1732201224379
678830|-18000000|1732201224419
678787|-18000000|1732201224459
678804|-18000000|1732201224499
683679|-18000000|1732201224539
678812|-18000000|1732201224579
678774|-18000000|1732201224619
678781|-18000000|1732201224659
678849|-18000000|1732201224699
678836|-18000000|1732201224739
678769|-18000000|1732201224779
678832|-18000000|1732201224819
678832|-18000000|1732201224859
684112|-18000000|1732201224899
678870|-18000000|1732201224939
678795|-18000000|1732201224979
678954|-18000000|1732201225019
684708|-18000000|1732201225059
678796|-18000000|1732201225099
678826|-18000000|1732201225139
678803|-18000000|1732201225179
684499|-18000000|1732201225219
678812|-18000000|1732201225259
678815|-18000000|1732201225299
678872|-18000000|1732201225339
678841|-18000000|1732201225379
678854|-18000000|1732201225419
678865|-18000000|1732201225459
678820|-18000000|1732201225499
678755|-18000000|1732201225539
684753|-18000000|1732201225579
678902|-18000000|1732201225619
678804|-18000000|1732201225659
678745|-18000000|1732201225699
672430|-18000000|1732201225739
678832|-18000000|1732201225779
678790|-18000000|1732201225819
678844|-18000000|1732201225859
672929|-18000000|1732201225899
678859|-18000000|1732201225939
678856|-18000000|1732201225979
678751|-18000000|1732201226019
678812|-18000000|1732201226059
678879|-18000000|1732201226099
678712|-18000000|1732201226139
678810|-18000000|1732201226179
678864|-18000000|1732201226219
675107|-18000000|1732201226259
678888|-18000000|1732201226299
678840|-18000000|1732201226339
678831|-18000000|1732201226379
673859|-18000000|1732201226419
678892|-18000000|1732201226459
678854|-18000000|1732201226499
678795|-18000000|1732201226539
684174|-18000000|1732201226579
678739|-18000000|1732201226619
678805|-18000000|1732201226659
678825|-18000000|1732201226699
678852|-18000000|1732201226739
678767|-18000000|1732201226779
678824|-18000000|1732201226819
678820|-18000000|1732201226859
678837|-18000000|1732201226899
684349|-18000000|1732201226939
678887|-18000000|1732201226979
678846|-18000000|1732201227019
678831|-18000000|1732201227059
672571|-18000000|1732201227099
678880|-18000000|1732201227139
678860|-18000000|1732201227179
678848|-18000000|1732201227219
682806|-18000000|1732201227259
678890|-18000000|1732201227299
678830|-18000000|1732201227339
678888|-18000000|1732201227379
679387|-18000000|1732201227419
678893|-18000000|1732201227459
678798|-18000000|1732201227499
678882|-18000000|1732201227539
678799|-18000000|1732201227579
672885|-18000000|1732201227619
678863|-18000000|1732201227659
678856|-18000000|1732201227699
678823|-18000000|1732201227739
677863|-18000000|1732201227779
678893|-18000000|1732201227819
678826|-18000000|1732201227859
678877|-18000000|1732201227899
681681|-18000000|1732201227939
678795|-18000000|1732201227979
678809|-18000000|1732201228019
678869|-18000000|1732201228059
678833|-18000000|1732201228099
678847|-18000000|1732201228139
678902|-18000000|1732201228179
678808|-18000000|1732201228219
676241|-18000000|1732201228259
678827|-18000000|1732201228299
678847|-18000000|1732201228339
678742|-18000000|1732201228379
675105|-18000000|1732201228419
678804|-18000000|1732201228459
678760|-18000000|1732201228499
678764|-18000000|1732201228539
684174|-18000000|1732201228579
678808|-18000000|1732201228619
678773|-18000000|1732201228659
678847|-18000000|1732201228699
680032|-18000000|1732201228739
678827|-18000000|1732201228779
678855|-18000000|1732201228819
678876|-18000000|1732201228859
678687|-18000000|1732201228899
675478|-18000000|1732201228939
678763|-18000000|1732201228979
678858|-18000000|1732201229019
678860|-18000000|1732201229059
677168|-18000000|1732201229099
678798|-18000000|1732201229139
678659|-18000000|1732201229179
678809|-18000000|1732201229219
683772|-18000000|1732201229259
678780|-18000000|1732201229299
678759|-18000000|1732201229339
678822|-18000000|1732201229379
678296|-18000000|1732201229419
678718|-18000000|1732201229459
678813|-18000000|1732201229499
678830|-18000000|1732201229539
678796|-18000000|1732201229579
684449|-18000000|1732201229619
678846|-18000000|1732201229659
678772|-18000000|1732201229699
678760|-18000000|1732201229739
684714|-18000000|1732201229779
678691|-18000000|1732201229819
678876|-18000000|1732201229859
678772|-18000000|1732201229899
680643|-18000000|1732201229939
678841|-18000000|1732201229979
678826|-18000000|1732201230019
678854|-18000000|1732201230059
681813|-18000000|1732201230099
678765|-18000000|1732201230139
678739|-18000000|1732201230179
678860|-18000000|1732201230219
678767|-18000000|1732201230259
677687|-18000000|1732201230299
678780|-18000000|1732201230339
678812|-18000000|1732201230379
678843|-18000000|1732201230419
675175|-18000000|1732201230459
678813|-18000000|1732201230499
678768|-18000000|1732201230539
678785|-18000000|1732201230579
683341|-18000000|1732201230619
678887|-18000000|1732201230659
678872|-18000000|1732201230699
678793|-18000000|1732201230739
684690|-18000000|1732201230779
678851|-18000000|1732201230819
678897|-18000000|1732201230859
678830|-18000000|1732201230899
678775|-18000000|1732201230939
678890|-18000000|1732201230979
678801|-18000000|1732201231019
678845|-18000000|1732201231059
678892|-18000000|1732201231099
673864|-18000000|1732201231139
678770|-18000000|1732201231179
678888|-18000000|1732201231219
678864|-18000000|1732201231259
683217|-18000000|1732201231299
678751|-18000000|1732201231339
678747|-18000000|1732201231379
678859|-18000000|1732201231419
676359|-18000000|1732201231459
678833|-18000000|1732201231499
678776|-18000000|1732201231539
678740|-18000000|1732201231579
678694|-18000000|1732201231619
678861|-18000000|1732201231659
678803|-18000000|1732201231699
678814|-18000000|1732201231739
678759|-18000000|1732201231779
685396|-18000000|1732201231819
678777|-18000000|1732201231859
678787|-18000000|1732201231899
678797|-18000000|1732201231939
683187|-18000000|1732201231979
678799|-18000000|1732201232019
678742|-18000000|1732201232058
678734|-18000000|1732201232097
680976|-18000000|1732201232136
678842|-18000000|1732201232176
678812|-18000000|1732201232216
678764|-18000000|1732201232256
678767|-18000000|1732201232296
678759|-18000000|1732201232336
678628|-18000000|1732201232376
678812|-18000000|1732201232416
678795|-18000000|1732201232456
682246|-18000000|1732201232496
678785|-18000000|1732201232536
678816|-18000000|1732201232576
678813|-18000000|1732201232616
684683|-18000000|1732201232656
678767|-18000000|1732201232696
678771|-18000000|1732201232736
678712|-18000000|1732201232776
683988|-18000000|1732201232816
678841|-18000000|1732201232856
678732|-18000000|1732201232896
678812|-18000000|1732201232936
678692|-18000000|1732201232976
678791|-18000000|1732201233016
678803|-18000000|1732201233056
678833|-18000000|1732201233096
678819|-18000000|1732201233136
679870|-18000000|1732201233176
678833|-18000000|1732201233216
678826|-18000000|1732201233256
678858|-18000000|1732201233296
677974|-18000000|1732201233336
678679|-18000000|1732201233376
678776|-18000000|1732201233416
678810|-18000000|1732201233456
673141|-18000000|1732201233496
678732|-18000000|1732201233536
678741|-18000000|1732201233576
678847|-18000000|1732201233616
678787|-18000000|1732201233656
678819|-18000000|1732201233696
678817|-18000000|1732201233736
678753|-18000000|1732201233776
682329|-18000000|1732201233816
678776|-18000000|1732201233856
678741|-18000000|1732201233896
678906|-18000000|1732201233936
672934|-18000000|1732201233976
678751|-18000000|1732201234016
678830|-18000000|1732201234056
678852|-18000000|1732201234096
676816|-18000000|1732201234136
678792|-18000000|1732201234176
678797|-18000000|1732201234216
678894|-18000000|1732201234256
678904|-18000000|1732201234296
678839|-18000000|1732201234336
678780|-18000000|1732201234376
678797|-18000000|1732201234416
678821|-18000000|1732201234456
684986|-18000000|1732201234496
678830|-18000000|1732201234536
678793|-18000000|1732201234576
678830|-18000000|1732201234616
673138|-18000000|1732201234656
678830|-18000000|1732201234696
678751|-18000000|1732201234736
678756|-18000000|1732201234776
677955|-18000000|1732201234816
678698|-18000000|1732201234856
678834|-18000000|1732201234896
678766|-18000000|1732201234936
678836|-18000000|1732201234976
678722|-18000000|1732201235016
678802|-18000000|1732201235056
678774|-18000000|1732201235096
678809|-18000000|1732201235136
683304|-18000000|1732201235176
678808|-18000000|1732201235216
678780|-18000000|1732201235256
678678|-18000000|1732201235296
677818|-18000000|1732201235336
678789|-18000000|1732201235376
678838|-18000000|1732201235416
678835|-18000000|1732201235456
677891|-18000000|1732201235496
678835|-18000000|1732201235536
678833|-18000000|1732201235576
678736|-18000000|1732201235616
678818|-18000000|1732201235656
678752|-18000000|1732201235696
678883|-18000000|1732201235736
678733|-18000000|1732201235776
678834|-18000000|1732201235816
673109|-18000000|1732201235856
678805|-18000000|1732201235896
678757|-18000000|1732201235936
678752|-18000000|1732201235976
676892|-18000000|1732201236016
678773|-18000000|1732201236056
678729|-18000000|1732201236096
678775|-18000000|1732201236136
683106|-18000000|1732201236176
678771|-18000000|1732201236216
678756|-18000000|1732201236256
678792|-18000000|1732201236296
678751|-18000000|1732201236336
678803|-18000000|1732201236376
678807|-18000000|1732201236416
678770|-18000000|1732201236456
678662|-18000000|1732201236496
673036|-18000000|1732201236536
678778|-18000000|1732201236576
678814|-18000000|1732201236616
678738|-18000000|1732201236656
672824|-18000000|1732201236696
678770|-18000000|1732201236736
678809|-18000000|1732201236776
678740|-18000000|1732201236816
673642|-18000000|1732201236856
678811|-18000000|1732201236896
678850|-18000000|1732201236936
678749|-18000000|1732201236976
678799|-18000000|1732201237016
678721|-18000000|1732201237056
678762|-18000000|1732201237096
678655|-18000000|1732201237136
678770|-18000000|1732201237176
684324|-18000000|1732201237216
678780|-18000000|1732201237256
678828|-18000000|1732201237296
678769|-18000000|1732201237336
673612|-18000000|1732201237376
678817|-18000000|1732201237416
678953|-18000000|1732201237456
678788|-18000000|1732201237496
681772|-18000000|1732201237536
678731|-18000000|1732201237576
678743|-18000000|1732201237616
678756|-18000000|1732201237656
678795|-18000000|1732201237696
678881|-18000000|1732201237736
678787|-18000000|1732201237776
678792|-18000000|1732201237816
678744|-18000000|1732201237856
682991|-18000000|1732201237896
678826|-18000000|1732201237936
678740|-18000000|1732201237976
678780|-18000000|1732201238016
681256|-18000000|1732201238056
678861|-18000000|1732201238096
678729|-18000000|1732201238136
678753|-18000000|1732201238176
681887|-18000000|1732201238216
678837|-18000000|1732201238256
678748|-18000000|1732201238296
678748|-18000000|1732201238336
678754|-18000000|1732201238376
678779|-18000000|1732201238416
678794|-18000000|1732201238456
678738|-18000000|1732201238496
678821|-18000000|1732201238536
675164|-18000000|1732201238576
678758|-18000000|1732201238616
678791|-18000000|1732201238656
678837|-18000000|1732201238696
678732|-18000000|1732201238736
678793|-18000000|1732201238776
678798|-18000000|1732201238816
678722|-18000000|1732201238856
684405|-18000000|1732201238896
678844|-18000000|1732201238936
678848|-18000000|1732201238976
678824|-18000000|1732201239016
678812|-18000000|1732201239056
678811|-18000000|1732201239096
678808|-18000000|1732201239136
678806|-18000000|1732201239176
677444|-18000000|1732201239216
678805|-18000000|1732201239256
678781|-18000000|1732201239296
678717|-18000000|1732201239336
682049|-18000000|1732201239376
678761|-18000000|1732201239416
678842|-18000000|1732201239456
678720|-18000000|1732201239496
681391|-18000000|1732201239536
678793|-18000000|1732201239576
678801|-18000000|1732201239616
678820|-18000000|1732201239656
678737|-18000000|1732201239696
678750|-18000000|1732201239736
678763|-18000000|1732201239776
678706|-18000000|1732201239816
678755|-18000000|1732201239856
680463|-18000000|1732201239896
678701|-18000000|1732201239936
678670|-18000000|1732201239976
678726|-18000000|1732201240016
683957|-18000000|1732201240056
678717|-18000000|1732201240096
678739|-18000000|1732201240136
678739|-18000000|1732201240176
675101|-18000000|1732201240216
678756|-18000000|1732201240256
678800|-18000000|1732201240296
678758|-18000000|1732201240336
678676|-18000000|1732201240376
678737|-18000000|1732201240416
678817|-18000000|1732201240456
678806|-18000000|1732201240496
678716|-18000000|1732201240536
685073|-18000000|1732201240576
678833|-18000000|1732201240616
678849|-18000000|1732201240656
678843|-18000000|1732201240696
684686|-18000000|1732201240736
678823|-18000000|1732201240776
678747|-18000000|1732201240816
678765|-18000000|1732201240856
674135|-18000000|1732201240896
678747|-18000000|1732201240936
678755|-18000000|1732201240976
678798|-18000000|1732201241016
678723|-18000000|1732201241056
678710|-18000000|1732201241096
678693|-18000000|1732201241136
678853|-18000000|1732201241176
678817|-18000000|1732201241216
673737|-18000000|1732201241256
678797|-18000000|1732201241296
678752|-18000000|1732201241336
678751|-18000000|1732201241376
677035|-18000000|1732201241416
678901|-18000000|1732201241456
678834|-18000000|1732201241496
678809|-18000000|1732201241536
684754|-18000000|1732201241576
678797|-18000000|1732201241616
678799|-18000000|1732201241656
678849|-18000000|1732201241696
678787|-18000000|1732201241736
678812|-18000000|1732201241776
678901|-18000000|1732201241816
678791|-18000000|1732201241856
678869|-18000000|1732201241896
675092|-18000000|1732201241936
678847|-18000000|1732201241976
678787|-18000000|1732201242016
678844|-18000000|1732201242056
672945|-18000000|1732201242096
678915|-18000000|1732201242136
678749|-18000000|1732201242176
678784|-18000000|1732201242216
682641|-18000000|1732201242256
678716|-18000000|1732201242296
678722|-18000000|1732201242336
678739|-18000000|1732201242376
678755|-18000000|1732201242416
678842|-18000000|1732201242456
678778|-18000000|1732201242496
678704|-18000000|1732201242536
678788|-18000000|1732201242576
672768|-18000000|1732201242616
678778|-18000000|1732201242656
678768|-18000000|1732201242696
678811|-18000000|1732201242736
682352|-18000000|1732201242776
678818|-18000000|1732201242816
678804|-18000000|1732201242856
678780|-18000000|1732201242896
673417|-18000000|1732201242936
678787|-18000000|1732201242976
678735|-18000000|1732201243016
678813|-18000000|1732201243056
681389|-18000000|1732201243096
678814|-18000000|1732201243136
678782|-18000000|1732201243176
678753|-18000000|1732201243216
678787|-18000000|1732201243256
683344|-18000000|1732201243296
678688|-18000000|1732201243336
678705|-18000000|1732201243376
678698|-18000000|1732201243416
684208|-18000000|1732201243456
678810|-18000000|1732201243496
678740|-18000000|1732201243536
678821|-18000000|1732201243576
684747|-18000000|1732201243616
678737|-18000000|1732201243656
678721|-18000000|1732201243696
678735|-18000000|1732201243736
679935|-18000000|1732201243776
678800|-18000000|1732201243816
678744|-18000000|1732201243856
678855|-18000000|1732201243896
678818|-18000000|1732201243936
675126|-18000000|1732201243976
678805|-18000000|1732201244016
678784|-18000000|1732201244056
678799|-18000000|1732201244096
681731|-18000000|1732201244136
678773|-18000000|1732201244176
678724|-18000000|1732201244216
678754|-18000000|1732201244256
683251|-18000000|1732201244296
678847|-18000000|1732201244336
678767|-18000000|1732201244376
678840|-18000000|1732201244416
680327|-18000000|1732201244456
678772|-18000000|1732201244496
678747|-18000000|1732201244536
678738|-18000000|1732201244576
678755|-18000000|1732201244616
672902|-18000000|1732201244656
678698|-18000000|1732201244696
678799|-18000000|1732201244736
678755|-18000000|1732201244776
672405|-18000000|1732201244816
678843|-18000000|1732201244856
678763|-18000000|1732201244896
678805|-18000000|1732201244936
674330|-18000000|1732201244976
678788|-18000000|1732201245016
678666|-18000000|1732201245056
678764|-18000000|1732201245096
678042|-18000000|1732201245136
678827|-18000000|1732201245176
678712|-18000000|1732201245216
678739|-18000000|1732201245256
678726|-18000000|1732201245296
684663|-18000000|1732201245336
678762|-18000000|1732201245376
678846|-18000000|1732201245416
678764|-18000000|1732201245456
684879|-18000000|1732201245496
678765|-18000000|1732201245536
678684|-18000000|1732201245576
678753|-18000000|1732201245616
684684|-18000000|1732201245656
678741|-18000000|1732201245696
678809|-18000000|1732201245736
674862|-18000000|1732201245776
678876|-18000000|1732201245816
678876|-18000000|1732201245856
678766|-18000000|1732201245896
678744|-18000000|1732201245936
677207|-18000000|1732201245976
678763|-18000000|1732201246016
678768|-18000000|1732201246056
678808|-18000000|1732201246096
684288|-18000000|1732201246136
678787|-18000000|1732201246176
678750|-18000000|1732201246216
678832|-18000000|1732201246256
675881|-18000000|1732201246296
678827|-18000000|1732201246336
678758|-18000000|1732201246376
678791|-18000000|1732201246416
672981|-18000000|1732201246456
678847|-18000000|1732201246496
678852|-18000000|1732201246536
678836|-18000000|1732201246576
678899|-18000000|1732201246616
678825|-18000000|1732201246656
678856|-18000000|1732201246696
678739|-18000000|1732201246736
678870|-18000000|1732201246776
676409|-18000000|1732201246816
678748|-18000000|1732201246856
678937|-18000000|1732201246896
678799|-18000000|1732201246936
684664|-18000000|1732201246976
678729|-18000000|1732201247016
678718|-18000000|1732201247056
678860|-18000000|1732201247096
685117|-18000000|1732201247136
678815|-18000000|1732201247176
678816|-18000000|1732201247216
678878|-18000000|1732201247256
678867|-18000000|1732201247296
678854|-18000000|1732201247336
678762|-18000000|1732201247376
678709|-18000000|1732201247416
678780|-18000000|1732201247456
678678|-18000000|1732201247496
678874|-18000000|1732201247536
678744|-18000000|1732201247576
678869|-18000000|1732201247616
673730|-18000000|1732201247656
678897|-18000000|1732201247696
678720|-18000000|1732201247736
678719|-18000000|1732201247776
678165|-18000000|1732201247816
678956|-18000000|1732201247856
678922|-18000000|1732201247896
678807|-18000000|1732201247936
678810|-18000000|1732201247976
678868|-18000000|1732201248016
678735|-18000000|1732201248056
678765|-18000000|1732201248096
678778|-18000000|1732201248136
672921|-18000000|1732201248176
678785|-18000000|1732201248216
678831|-18000000|1732201248256
678661|-18000000|1732201248296
681363|-18000000|1732201248336
678843|-18000000|1732201248376
678852|-18000000|1732201248416
678756|-18000000|1732201248456
681114|-18000000|1732201248496
678963|-18000000|1732201248536
678804|-18000000|1732201248576
678850|-18000000|1732201248616
678796|-18000000|1732201248656
678860|-18000000|1732201248696
678810|-18000000|1732201248736
678898|-18000000|1732201248776
678837|-18000000|1732201248816
680805|-18000000|1732201248856
678867|-18000000|1732201248896
678875|-18000000|1732201248936
678802|-18000000|1732201248976
672911|-18000000|1732201249016
678841|-18000000|1732201249056
678788|-18000000|1732201249096
678874|-18000000|1732201249136
681167|-18000000|1732201249176
678802|-18000000|1732201249216
678867|-18000000|1732201249256
678874|-18000000|1732201249296
678868|-18000000|1732201249336
678826|-18000000|1732201249376
678896|-18000000|1732201249416
678849|-18000000|1732201249456
678757|-18000000|1732201249496
684729|-18000000|1732201249536
678777|-18000000|1732201249576
678775|-18000000|1732201249616
678825|-18000000|1732201249656
673389|-18000000|1732201249696
678893|-18000000|1732201249736
678802|-18000000|1732201249776
678775|-18000000|1732201249816
674607|-18000000|1732201249856
678860|-18000000|1732201249896
678749|-18000000|1732201249936
678758|-18000000|1732201249976
678806|-18000000|1732201250016
678812|-18000000|1732201250056
678799|-18000000|1732201250096
678776|-18000000|1732201250136
678808|-18000000|1732201250176
679488|-18000000|1732201250216
678874|-18000000|1732201250256
678811|-18000000|1732201250296
678808|-18000000|1732201250336
683354|-18000000|1732201250376
678818|-18000000|1732201250416
678803|-18000000|1732201250456
678843|-18000000|1732201250496
681561|-18000000|1732201250536
678864|-18000000|1732201250576
678836|-18000000|1732201250616
678773|-18000000|1732201250656
678795|-18000000|1732201250696
678830|-18000000|1732201250736
678778|-18000000|1732201250776
678883|-18000000|1732201250816
674844|-18000000|1732201250856
678852|-18000000|1732201250896
678858|-18000000|1732201250936
678844|-18000000|1732201250976
684363|-18000000|1732201251016
678782|-18000000|1732201251056
678829|-18000000|1732201251096
678812|-18000000|1732201251136
684892|-18000000|1732201251176
678877|-18000000|1732201251216
678877|-18000000|1732201251256
678822|-18000000|1732201251296
678736|-18000000|1732201251336
678770|-18000000|1732201251376
678885|-18000000|1732201251416
678883|-18000000|1732201251456
678750|-18000000|1732201251496
675017|-18000000|1732201251536
678837|-18000000|1732201251576
678828|-18000000|1732201251616
678842|-18000000|1732201251656
684253|-18000000|1732201251696
678813|-18000000|1732201251736
678889|-18000000|1732201251776
678773|-18000000|1732201251816
672761|-18000000|1732201251856
678879|-18000000|1732201251896
678833|-18000000|1732201251936
678780|-18000000|1732201251976
678766|-18000000|1732201252016
678810|-18000000|1732201252056
678789|-18000000|1732201252096
678780|-18000000|1732201252136
678823|-18000000|1732201252176
678991|-18000000|1732201252216
678784|-18000000|1732201252256
678888|-18000000|1732201252296
678808|-18000000|1732201252336
677191|-18000000|1732201252376
678892|-18000000|1732201252416
678896|-18000000|1732201252456
678747|-18000000|1732201252496
673563|-18000000|1732201252536
678913|-18000000|1732201252576
678812|-18000000|1732201252616
678805|-18000000|1732201252656
678821|-18000000|1732201252696
678945|-18000000|1732201252736
678900|-18000000|1732201252776
678816|-18000000|1732201252816
678908|-18000000|1732201252856
684852|-18000000|1732201252896
678868|-18000000|1732201252936
678895|-18000000|1732201252976
678893|-18000000|1732201253016
683152|-18000000|1732201253056
678972|-18000000|1732201253096
678847|-18000000|1732201253136
678838|-18000000|1732201253176
672710|-18000000|1732201253216
678806|-18000000|1732201253256
678765|-18000000|1732201253296
678916|-18000000|1732201253336
678840|-18000000|1732201253376
678897|-18000000|1732201253416
678921|-18000000|1732201253456
678861|-18000000|1732201253496
678831|-18000000|1732201253536
674633|-18000000|1732201253576
678815|-18000000|1732201253616
678854|-18000000|1732201253656
678774|-18000000|1732201253696
682048|-18000000|1732201253736
678881|-18000000|1732201253776
678905|-18000000|1732201253816
678811|-18000000|1732201253856
675604|-18000000|1732201253896
678861|-18000000|1732201253936
678751|-18000000|1732201253976
678819|-18000000|1732201254016
678924|-18000000|1732201254056
678868|-18000000|1732201254096
678873|-18000000|1732201254136
678896|-18000000|1732201254176
678824|-18000000|1732201254216
684131|-18000000|1732201254256
678827|-18000000|1732201254296
678915|-18000000|1732201254336
678749|-18000000|1732201254376
673435|-18000000|1732201254416
678825|-18000000|1732201254456
678880|-18000000|1732201254496
678917|-18000000|1732201254536
673507|-18000000|1732201254576
678881|-18000000|1732201254616
678852|-18000000|1732201254656
678798|-18000000|1732201254696
678755|-18000000|1732201254736
678805|-18000000|1732201254776
678874|-18000000|1732201254816
678809|-18000000|1732201254856
678811|-18000000|1732201254896
676449|-18000000|1732201254936
678783|-18000000|1732201254976
678832|-18000000|1732201255016
678867|-18000000|1732201255056
683620|-18000000|1732201255096
678774|-18000000|1732201255136
678780|-18000000|1732201255176
678827|-18000000|1732201255216
684739|-18000000|1732201255256
678873|-18000000|1732201255296
678749|-18000000|1732201255336
678912|-18000000|1732201255376
678826|-18000000|1732201255416
678896|-18000000|1732201255456
678861|-18000000|1732201255496
678802|-18000000|1732201255536
678777|-18000000|1732201255576
678680|-18000000|1732201255616
678883|-18000000|1732201255656
678789|-18000000|1732201255696
678839|-18000000|1732201255736
684123|-18000000|1732201255776
678695|-18000000|1732201255816
678877|-18000000|1732201255856
678898|-18000000|1732201255896
672919|-18000000|1732201255936
678862|-18000000|1732201255977
678792|-18000000|1732201256018
678829|-18000000|1732201256058
678817|-18000000|1732201256098
678872|-18000000|1732201256138
678847|-18000000|1732201256178
678879|-18000000|1732201256218
678868|-18000000|1732201256258
681096|-18000000|1732201256298
678844|-18000000|1732201256338
678778|-18000000|1732201256378
678906|-18000000|1732201256418
673625|-18000000|1732201256458
678896|-18000000|1732201256498
678827|-18000000|1732201256538
678935|-18000000|1732201256578
680753|-18000000|1732201256618
678819|-18000000|1732201256658
678897|-18000000|1732201256698
678746|-18000000|1732201256738
678888|-18000000|1732201256778
678795|-18000000|1732201256818
678917|-18000000|1732201256858
678815|-18000000|1732201256898
678756|-18000000|1732201256938
684256|-18000000|1732201256978
678820|-18000000|1732201257018
678890|-18000000|1732201257058
678777|-18000000|1732201257098
677983|-18000000|1732201257138
678881|-18000000|1732201257178
678842|-18000000|1732201257218
678812|-18000000|1732201257258
684220|-18000000|1732201257298
678876|-18000000|1732201257338
678778|-18000000|1732201257378
678792|-18000000|1732201257418
678870|-18000000|1732201257458
678707|-18000000|1732201257498
678773|-18000000|1732201257538
678826|-18000000|1732201257578
678774|-18000000|1732201257618
674655|-18000000|1732201257658
678868|-18000000|1732201257698
678888|-18000000|1732201257738
678747|-18000000|1732201257778
683673|-18000000|1732201257818
678828|-18000000|1732201257858
678852|-18000000|1732201257898
678954|-18000000|1732201257938
674137|-18000000|1732201257978
678792|-18000000|1732201258018
678851|-18000000|1732201258058
678943|-18000000|1732201258098
678779|-18000000|1732201258138
678836|-18000000|1732201258178
678790|-18000000|1732201258218
678876|-18000000|1732201258258
678761|-18000000|1732201258298
674376|-18000000|1732201258338
678844|-18000000|1732201258378
678785|-18000000|1732201258418
678795|-18000000|1732201258458
684347|-18000000|1732201258498
678803|-18000000|1732201258538
678824|-18000000|1732201258578
678726|-18000000|1732201258618
673648|-18000000|1732201258658
678816|-18000000|1732201258698
678820|-18000000|1732201258738
678790|-18000000|1732201258778
681842|-18000000|1732201258818
678811|-18000000|1732201258858
678861|-18000000|1732201258898
678899|-18000000|1732201258938
678777|-18000000|1732201258978
683962|-18000000|1732201259018
678809|-18000000|1732201259058
678941|-18000000|1732201259098
684980|-18000000|1732201259138
678865|-18000000|1732201259178
678876|-18000000|1732201259218
678883|-18000000|1732201259258
680423|-18000000|1732201259298
678847|-18000000|1732201259338
678818|-18000000|1732201259378
678884|-18000000|1732201259418
677036|-18000000|1732201259458
678845|-18000000|1732201259498
678921|-18000000|1732201259538
678899|-18000000|1732201259578
678818|-18000000|1732201259618
684975|-18000000|1732201259658
678845|-18000000|1732201259698
678775|-18000000|1732201259738
678837|-18000000|1732201259778
678074|-18000000|1732201259818
678841|-18000000|1732201259858
678750|-18000000|1732201259898
678844|-18000000|1732201259938
674028|-18000000|1732201259978
678892|-18000000|1732201260018
678734|-18000000|1732201260058
678881|-18000000|1732201260098
680197|-18000000|1732201260138
678841|-18000000|1732201260178
678804|-18000000|1732201260218
678807|-18000000|1732201260258
678684|-18000000|1732201260298
681408|-18000000|1732201260338
678817|-18000000|1732201260378
678789|-18000000|1732201260418
678767|-18000000|1732201260458
681964|-18000000|1732201260498
678688|-18000000|1732201260538
678864|-18000000|1732201260578
678766|-18000000|1732201260618
684156|-18000000|1732201260658
678780|-18000000|1732201260698
678843|-18000000|1732201260738
678902|-18000000|1732201260778
676824|-18000000|1732201260818
678859|-18000000|1732201260858
678866|-18000000|1732201260898
678903|-18000000|1732201260938
678856|-18000000|1732201260978
683496|-18000000|1732201261018
678805|-18000000|1732201261058
678795|-18000000|1732201261098
678785|-18000000|1732201261138
683496|-18000000|1732201261178
678851|-18000000|1732201261218
678780|-18000000|1732201261258
678839|-18000000|1732201261298
681886|-18000000|1732201261338
678721|-18000000|1732201261378
678798|-18000000|1732201261418
678842|-18000000|1732201261458
672729|-18000000|1732201261498
678841|-18000000|1732201261538
678809|-18000000|1732201261578
678868|-18000000|1732201261618
678798|-18000000|1732201261658
679990|-18000000|1732201261698
678946|-18000000|1732201261738
678754|-18000000|1732201261778
678851|-18000000|1732201261818
674015|-18000000|1732201261858
678807|-18000000|1732201261898
678792|-18000000|1732201261938
678829|-18000000|1732201261978
684729|-18000000|1732201262018
678880|-18000000|1732201262058
678866|-18000000|1732201262098
678807|-18000000|1732201262138
673141|-18000000|1732201262178
678767|-18000000|1732201262218
678742|-18000000|1732201262258
678815|-18000000|1732201262298
678900|-18000000|1732201262338
679010|-18000000|1732201262378
678820|-18000000|1732201262418
678842|-18000000|1732201262458
678862|-18000000|1732201262498
685027|-18000000|1732201262538
678764|-18000000|1732201262578
678847|-18000000|1732201262618
678757|-18000000|1732201262658
684449|-18000000|1732201262698
678839|-18000000|1732201262738
678838|-18000000|1732201262778
678798|-18000000|1732201262818
672636|-18000000|1732201262858
678772|-18000000|1732201262898
678762|-18000000|1732201262938
678808|-18000000|1732201262978
678836|-18000000|1732201263018
678785|-18000000|1732201263058
678871|-18000000|1732201263098
678829|-18000000|1732201263138
678738|-18000000|1732201263178
674367|-18000000|1732201263218
678859|-18000000|1732201263258
678746|-18000000|1732201263298
678855|-18000000|1732201263338
672830|-18000000|1732201263378
678816|-18000000|1732201263418
678785|-18000000|1732201263458
678778|-18000000|1732201263498
682698|-18000000|1732201263538
678774|-18000000|1732201263578
678719|-18000000|1732201263618
678770|-18000000|1732201263658
678717|-18000000|1732201263698
678805|-18000000|1732201263738
678806|-18000000|1732201263778
678837|-18000000|1732201263818
678745|-18000000|1732201263858
675336|-18000000|1732201263898
678825|-18000000|1732201263938
678835|-18000000|1732201263978
678797|-18000000|1732201264018
682993|-18000000|1732201264058
678847|-18000000|1732201264098
678825|-18000000|1732201264138
678820|-18000000|1732201264178
684689|-18000000|1732201264218
678759|-18000000|1732201264258
678795|-18000000|1732201264298
678765|-18000000|1732201264338
678798|-18000000|1732201264378
678766|-18000000|1732201264418
678780|-18000000|1732201264458
678792|-18000000|1732201264498
674131|-18000000|1732201264538
678753|-18000000|1732201264578
678758|-18000000|1732201264618
678686|-18000000|1732201264658
673066|-18000000|1732201264698
678830|-18000000|1732201264738
678747|-18000000|1732201264778
678817|-18000000|1732201264818
683264|-18000000|1732201264858
678734|-18000000|1732201264898
678778|-18000000|1732201264938
678823|-18000000|1732201264978
678811|-18000000|1732201265018
678874|-18000000|1732201265058
678775|-18000000|1732201265098
678735|-18000000|1732201265138
678733|-18000000|1732201265178
678376|-18000000|1732201265218
678852|-18000000|1732201265258
678828|-18000000|1732201265298
678837|-18000000|1732201265338
672614|-18000000|1732201265378
678783|-18000000|1732201265418
678877|-18000000|1732201265458
678912|-18000000|1732201265498
684588|-18000000|1732201265538
678800|-18000000|1732201265578
678863|-18000000|1732201265618
678788|-18000000|1732201265658
678724|-18000000|1732201265698
678811|-18000000|1732201265738
678789|-18000000|1732201265778
678814|-18000000|1732201265818
678844|-18000000|1732201265858
681170|-18000000|1732201265898
678833|-18000000|1732201265938
678849|-18000000|1732201265978
678704|-18000000|1732201266018
673796|-18000000|1732201266058
678848|-18000000|1732201266098
678808|-18000000|1732201266138
678834|-18000000|1732201266178
683872|-18000000|1732201266218
678857|-18000000|1732201266258
678825|-18000000|1732201266298
678795|-18000000|1732201266338
678805|-18000000|1732201266378
678776|-18000000|1732201266418
678831|-18000000|1732201266458
678784|-18000000|1732201266498
678848|-18000000|1732201266538
681081|-18000000|1732201266578
678806|-18000000|1732201266618
678922|-18000000|1732201266658
678711|-18000000|1732201266698
680608|-18000000|1732201266738
678819|-18000000|1732201266778
678769|-18000000|1732201266818
678832|-18000000|1732201266858
681502|-18000000|1732201266898
678751|-18000000|1732201266938
678844|-18000000|1732201266978
678722|-18000000|1732201267018
678858|-18000000|1732201267058
678829|-18000000|1732201267098
678818|-18000000|1732201267138
678746|-18000000|1732201267178
678778|-18000000|1732201267218
672759|-18000000|1732201267258
678771|-18000000|1732201267298
678834|-18000000|1732201267338
678692|-18000000|1732201267378
684053|-18000000|1732201267418
678742|-18000000|1732201267458
678684|-18000000|1732201267498
678787|-18000000|1732201267538
683736|-18000000|1732201267578
678784|-18000000|1732201267618
678762|-18000000|1732201267658
678872|-18000000|1732201267698
678775|-18000000|1732201267738
678808|-18000000|1732201267778
678820|-18000000|1732201267818
678778|-18000000|1732201267858
678777|-18000000|1732201267898
684981|-18000000|1732201267938
678746|-18000000|1732201267978
678841|-18000000|1732201268019
678685|-18000000|1732201268059
684301|-18000000|1732201268099
678874|-18000000|1732201268139
678720|-18000000|1732201268179
678847|-18000000|1732201268219
675261|-18000000|1732201268259
678795|-18000000|1732201268299
678821|-18000000|1732201268339
678784|-18000000|1732201268379
678802|-18000000|1732201268419
678763|-18000000|1732201268459
678841|-18000000|1732201268499
678828|-18000000|1732201268539
678768|-18000000|1732201268579
680222|-18000000|1732201268619
678793|-18000000|1732201268659
678843|-18000000|1732201268699
678744|-18000000|1732201268739
673888|-18000000|1732201268779
678815|-18000000|1732201268819
678811|-18000000|1732201268859
678656|-18000000|1732201268899
679736|-18000000|1732201268939
678837|-18000000|1732201268979
678745|-18000000|1732201269019
678799|-18000000|1732201269059
678797|-18000000|1732201269099
678754|-18000000|1732201269139
678799|-18000000|1732201269179
678774|-18000000|1732201269219
678746|-18000000|1732201269259
674042|-18000000|1732201269299
678773|-18000000|1732201269339
678736|-18000000|1732201269379
678827|-18000000|1732201269419
684612|-18000000|1732201269459
678714|-18000000|1732201269499
678799|-18000000|1732201269539
678747|-18000000|1732201269579
678507|-18000000|1732201269619
678705|-18000000|1732201269659
678803|-18000000|1732201269699
678804|-18000000|1732201269739
678807|-18000000|1732201269779
678745|-18000000|1732201269819
678760|-18000000|1732201269859
678807|-18000000|1732201269899
680337|-18000000|1732201269939
678654|-18000000|1732201269979
678814|-18000000|1732201270019
678747|-18000000|1732201270059
684660|-18000000|1732201270099
678729|-18000000|1732201270139
678743|-18000000|1732201270179
678802|-18000000|1732201270219
672827|-18000000|1732201270259
678794|-18000000|1732201270299
678695|-18000000|1732201270339
678752|-18000000|1732201270379
678822|-18000000|1732201270419
678645|-18000000|1732201270459
678788|-18000000|1732201270499
678767|-18000000|1732201270539
678763|-18000000|1732201270579
683268|-18000000|1732201270619
678729|-18000000|1732201270659
678760|-18000000|1732201270699
678827|-18000000|1732201270739
673366|-18000000|1732201270779
678766|-18000000|1732201270819
678814|-18000000|1732201270859
678797|-18000000|1732201270899
675945|-18000000|1732201270939
678724|-18000000|1732201270979
678738|-18000000|1732201271019
678729|-18000000|1732201271059
678725|-18000000|1732201271099
678754|-18000000|1732201271139
678876|-18000000|1732201271179
678751|-18000000|1732201271219
678764|-18000000|1732201271259
672810|-18000000|1732201271299
678789|-18000000|1732201271339
678800|-18000000|1732201271379
678811|-18000000|1732201271419
684620|-18000000|1732201271459
678773|-18000000|1732201271499
678820|-18000000|1732201271539
678698|-18000000|1732201271579
673775|-18000000|1732201271619
678681|-18000000|1732201271659
678775|-18000000|1732201271699
678824|-18000000|1732201271739
678858|-18000000|1732201271779
678754|-18000000|1732201271819
678914|-18000000|1732201271859
678817|-18000000|1732201271899
678781|-18000000|1732201271939
678618|-18000000|1732201271979
678794|-18000000|1732201272019
678734|-18000000|1732201272059
678767|-18000000|1732201272099
681624|-18000000|1732201272139
678718|-18000000|1732201272179
678801|-18000000|1732201272219
678735|-18000000|1732201272259
678609|-18000000|1732201272299
678825|-18000000|1732201272339
678802|-18000000|1732201272379
678879|-18000000|1732201272419
678791|-18000000|1732201272459
678850|-18000000|1732201272499
678720|-18000000|1732201272539
678772|-18000000|1732201272579
678728|-18000000|1732201272619
679396|-18000000|1732201272659
678820|-18000000|1732201272699
678857|-18000000|1732201272739
678827|-18000000|1732201272779
681910|-18000000|1732201272819
678741|-18000000|1732201272859
678788|-18000000|1732201272899
678799|-18000000|1732201272939
672713|-18000000|1732201272979
678820|-18000000|1732201273019
678861|-18000000|1732201273059
678745|-18000000|1732201273099
678693|-18000000|1732201273139
678810|-18000000|1732201273179
678798|-18000000|1732201273219
678794|-18000000|1732201273259
678751|-18000000|1732201273299
672624|-18000000|1732201273339
678823|-18000000|1732201273379
678772|-18000000|1732201273419
678727|-18000000|1732201273459
672541|-18000000|1732201273499
678841|-18000000|1732201273539
678731|-18000000|1732201273579
678736|-18000000|1732201273619
682892|-18000000|1732201273659
678780|-18000000|1732201273699
678782|-18000000|1732201273739
678830|-18000000|1732201273779
678759|-18000000|1732201273819
678712|-18000000|1732201273859
678848|-18000000|1732201273899
678765|-18000000|1732201273939
678809|-18000000|1732201273979
673523|-18000000|1732201274019
678759|-18000000|1732201274059
678838|-18000000|1732201274099
678722|-18000000|1732201274139
679331|-18000000|1732201274179
678665|-18000000|1732201274219
678691|-18000000|1732201274259
678709|-18000000|1732201274299
673871|-18000000|1732201274339
678789|-18000000|1732201274379
678805|-18000000|1732201274419
678771|-18000000|1732201274459
678967|-18000000|1732201274499
678694|-18000000|1732201274539
678727|-18000000|1732201274579
678784|-18000000|1732201274619
678859|-18000000|1732201274659
677231|-18000000|1732201274699
678850|-18000000|1732201274739
678804|-18000000|1732201274779
678763|-18000000|1732201274819
680559|-18000000|1732201274859
678800|-18000000|1732201274899
678769|-18000000|1732201274939
678741|-18000000|1732201274979
672996|-18000000|1732201275019
678865|-18000000|1732201275059
678743|-18000000|1732201275099
678668|-18000000|1732201275139
681717|-18000000|1732201275179
678716|-18000000|1732201275219
678742|-18000000|1732201275259
678753|-18000000|1732201275299
678808|-18000000|1732201275339
672801|-18000000|1732201275379
678834|-18000000|1732201275419
678840|-18000000|1732201275459
678780|-18000000|1732201275499
678753|-18000000|1732201275539
678737|-18000000|1732201275579
678804|-18000000|1732201275619
678075|-18000000|1732201275659
678664|-18000000|1732201275699
678761|-18000000|1732201275739
678757|-18000000|1732201275779
676272|-18000000|1732201275819
678785|-18000000|1732201275859
678728|-18000000|1732201275899
678767|-18000000|1732201275939
678768|-18000000|1732201275979
672522|-18000000|1732201276019
678768|-18000000|1732201276059
678831|-18000000|1732201276099
678741|-18000000|1732201276139
683264|-18000000|1732201276179
678759|-18000000|1732201276219
678769|-18000000|1732201276259
678828|-18000000|1732201276299
673425|-18000000|1732201276339
678788|-18000000|1732201276379
678675|-18000000|1732201276419
678818|-18000000|1732201276459
679479|-18000000|1732201276499
678766|-18000000|1732201276539
678740|-18000000|1732201276579
678665|-18000000|1732201276619
678730|-18000000|1732201276659
679745|-18000000|1732201276699
678804|-18000000|1732201276739
678753|-18000000|1732201276779
678704|-18000000|1732201276819
679084|-18000000|1732201276859
678679|-18000000|1732201276899
678713|-18000000|1732201276939
678757|-18000000|1732201276979
684314|-18000000|1732201277019
678760|-18000000|1732201277059
678677|-18000000|1732201277099
678700|-18000000|1732201277139
675328|-18000000|1732201277179
678621|-18000000|1732201277219
678750|-18000000|1732201277259
678767|-18000000|1732201277299
678808|-18000000|1732201277339
673364|-18000000|1732201277379
678852|-18000000|1732201277419
678717|-18000000|1732201277459
678743|-18000000|1732201277499
684101|-18000000|1732201277539
678673|-18000000|1732201277579
678693|-18000000|1732201277619
678751|-18000000|1732201277659
675415|-18000000|1732201277699
678803|-18000000|1732201277739
678697|-18000000|1732201277779
678763|-18000000|1732201277819
673263|-18000000|1732201277859
678660|-18000000|1732201277899
678602|-18000000|1732201277939
678762|-18000000|1732201277979
678756|-18000000|1732201278019
678911|-18000000|1732201278059
678726|-18000000|1732201278099
678760|-18000000|1732201278139
678714|-18000000|1732201278179
685060|-18000000|1732201278219
678795|-18000000|1732201278259
678663|-18000000|1732201278299
678749|-18000000|1732201278339
676788|-18000000|1732201278379
678760|-18000000|1732201278419
678684|-18000000|1732201278459
678678|-18000000|1732201278499
679979|-18000000|1732201278539
678732|-18000000|1732201278579
678798|-18000000|1732201278619
678784|-18000000|1732201278659
678643|-18000000|1732201278699
678694|-18000000|1732201278739
678719|-18000000|1732201278779
678692|-18000000|1732201278819
678723|-18000000|1732201278859
684800|-18000000|1732201278899
678737|-18000000|1732201278939
678735|-18000000|1732201278979
678693|-18000000|1732201279019
682540|-18000000|1732201279059
678651|-18000000|1732201279099
678653|-18000000|1732201279139
678713|-18000000|1732201279179
679012|-18000000|1732201279219
678700|-18000000|1732201279259
678715|-18000000|1732201279299
678733|-18000000|1732201279339
678711|-18000000|1732201279379
678782|-18000000|1732201279419
678713|-18000000|1732201279459
678651|-18000000|1732201279499
678717|-18000000|1732201279539
681988|-18000000|1732201279579
678725|-18000000|1732201279619
678632|-18000000|1732201279659
678726|-18000000|1732201279699
683902|-18000000|1732201279739
678757|-18000000|1732201279779
678723|-18000000|1732201279819
678684|-18000000|1732201279859
682676|-18000000|1732201279899
678738|-18000000|1732201279939
678780|-18000000|1732201279979
678746|-18000000|1732201280020
678762|-18000000|1732201280059
678680|-18000000|1732201280098
678689|-18000000|1732201280137
678734|-18000000|1732201280176
678731|-18000000|1732201280215
679811|-18000000|1732201280254
678732|-18000000|1732201280294
678682|-18000000|1732201280334
678667|-18000000|1732201280374
684219|-18000000|1732201280414
678705|-18000000|1732201280454
678834|-18000000|1732201280494
678755|-18000000|1732201280534
673315|-18000000|1732201280574
678675|-18000000|1732201280614
678740|-18000000|1732201280654
678777|-18000000|1732201280694
678644|-18000000|1732201280734
678711|-18000000|1732201280774
678778|-18000000|1732201280814
678683|-18000000|1732201280854
678715|-18000000|1732201280894
675475|-18000000|1732201280934
678741|-18000000|1732201280974
678703|-18000000|1732201281014
678844|-18000000|1732201281054
672776|-18000000|1732201281094
678792|-18000000|1732201281134
678696|-18000000|1732201281174
676679|-18000000|1732201281214
678738|-18000000|1732201281254
678658|-18000000|1732201281294
678644|-18000000|1732201281334
678660|-18000000|1732201281374
678717|-18000000|1732201281414
678797|-18000000|1732201281454
678678|-18000000|1732201281494
678653|-18000000|1732201281534
684702|-18000000|1732201281574
678733|-18000000|1732201281614
678667|-18000000|1732201281654
678681|-18000000|1732201281694
681329|-18000000|1732201281734
678743|-18000000|1732201281774
678629|-18000000|1732201281814
678717|-18000000|1732201281854
672752|-18000000|1732201281894
678785|-18000000|1732201281934
678769|-18000000|1732201281974
678746|-18000000|1732201282014
678706|-18000000|1732201282054
678743|-18000000|1732201282094
678686|-18000000|1732201282134
678732|-18000000|1732201282174
678604|-18000000|1732201282214
676558|-18000000|1732201282254
678691|-18000000|1732201282294
678751|-18000000|1732201282334
678672|-18000000|1732201282374
680374|-18000000|1732201282414
678738|-18000000|1732201282454
678749|-18000000|1732201282494
678673|-18000000|1732201282534
677968|-18000000|1732201282574
678775|-18000000|1732201282614
678685|-18000000|1732201282654
678791|-18000000|1732201282694
678802|-18000000|1732201282734
678645|-18000000|1732201282774
678665|-18000000|1732201282814
678723|-18000000|1732201282854
678703|-18000000|1732201282894
672050|-18000000|1732201282934
678765|-18000000|1732201282974
678721|-18000000|1732201283014
678631|-18000000|1732201283054
677594|-18000000|1732201283094
678727|-18000000|1732201283134
678666|-18000000|1732201283174
678767|-18000000|1732201283214
681515|-18000000|1732201283254
678770|-18000000|1732201283294
678625|-18000000|1732201283334
678801|-18000000|1732201283374
678720|-18000000|1732201283414
678769|-18000000|1732201283454
678675|-18000000|1732201283494
678646|-18000000|1732201283534
678759|-18000000|1732201283574
674755|-18000000|1732201283614
678696|-18000000|1732201283654
678716|-18000000|1732201283694
678691|-18000000|1732201283734
675029|-18000000|1732201283774
678768|-18000000|1732201283814
678568|-18000000|1732201283854
678669|-18000000|1732201283894
684606|-18000000|1732201283934
678659|-18000000|1732201283974
678709|-18000000|1732201284014
678700|-18000000|1732201284054
678760|-18000000|1732201284094
678668|-18000000|1732201284134
678745|-18000000|1732201284174
678707|-18000000|1732201284214
678675|-18000000|1732201284254
675554|-18000000|1732201284294
678722|-18000000|1732201284334
678780|-18000000|1732201284374
678635|-18000000|1732201284414
678441|-18000000|1732201284454
678752|-18000000|1732201284494
678541|-18000000|1732201284534
678728|-18000000|1732201284574
681311|-18000000|1732201284614
678759|-18000000|1732201284654
678795|-18000000|1732201284694
678768|-18000000|1732201284734
678664|-18000000|1732201284774
678666|-18000000|1732201284814
678674|-18000000|1732201284854
678721|-18000000|1732201284894
678808|-18000000|1732201284934
684009|-18000000|1732201284974
678627|-18000000|1732201285014
678725|-18000000|1732201285054
678587|-18000000|1732201285094
680915|-18000000|1732201285134
678811|-18000000|1732201285174
678826|-18000000|1732201285214
678664|-18000000|1732201285254
674075|-18000000|1732201285294
678655|-18000000|1732201285334
678687|-18000000|1732201285374
678685|-18000000|1732201285414
678745|-18000000|1732201285454
678695|-18000000|1732201285494
678783|-18000000|1732201285534
678648|-18000000|1732201285574
678713|-18000000|1732201285614
673751|-18000000|1732201285654
678721|-18000000|1732201285694
678676|-18000000|1732201285734
678712|-18000000|1732201285774
678597|-18000000|1732201285814
678701|-18000000|1732201285854
678706|-18000000|1732201285894
678645|-18000000|1732201285934
684795|-18000000|1732201285974
678705|-18000000|1732201286014
678702|-18000000|1732201286054
678700|-18000000|1732201286094
678701|-18000000|1732201286134
678669|-18000000|1732201286174
678619|-18000000|1732201286214
678698|-18000000|1732201286254
678622|-18000000|1732201286294
674807|-18000000|1732201286334
678735|-18000000|1732201286374
678747|-18000000|1732201286414
678730|-18000000|1732201286454
677191|-18000000|1732201286494
678663|-18000000|1732201286534
678686|-18000000|1732201286574
684396|-18000000|1732201286614
678691|-18000000|1732201286654
678659|-18000000|1732201286694
678717|-18000000|1732201286734
678700|-18000000|1732201286774
678673|-18000000|1732201286814
678659|-18000000|1732201286854
678634|-18000000|1732201286894
678600|-18000000|1732201286934
683343|-18000000|1732201286974
678750|-18000000|1732201287014
678664|-18000000|1732201287054
678729|-18000000|1732201287094
673360|-18000000|1732201287134
678679|-18000000|1732201287174
678654|-18000000|1732201287214
678728|-18000000|1732201287254
674628|-18000000|1732201287294
678716|-18000000|1732201287334
678688|-18000000|1732201287374
678710|-18000000|1732201287414
678644|-18000000|1732201287454
678666|-18000000|1732201287494
678663|-18000000|1732201287534
678676|-18000000|1732201287574
678688|-18000000|1732201287614
683622|-18000000|1732201287654
678719|-18000000|1732201287694
678612|-18000000|1732201287734
678624|-18000000|1732201287774
682001|-18000000|1732201287814
678650|-18000000|1732201287854
678709|-18000000|1732201287894
678701|-18000000|1732201287934
674763|-18000000|1732201287974
678741|-18000000|1732201288014
678695|-18000000|1732201288054
678632|-18000000|1732201288094
678623|-18000000|1732201288134
678712|-18000000|1732201288174
678620|-18000000|1732201288214
678664|-18000000|1732201288254
678709|-18000000|1732201288294
674155|-18000000|1732201288334
678718|-18000000|1732201288374
678669|-18000000|1732201288414
678806|-18000000|1732201288454
672780|-18000000|1732201288494
678719|-18000000|1732201288534
678724|-18000000|1732201288574
678668|-18000000|1732201288614
684705|-18000000|1732201288654
678671|-18000000|1732201288694
678668|-18000000|1732201288734
678557|-18000000|1732201288774
678730|-18000000|1732201288814
678667|-18000000|1732201288854
678644|-18000000|1732201288894
678667|-18000000|1732201288934
678670|-18000000|1732201288974
674483|-18000000|1732201289014
678672|-18000000|1732201289054
678602|-18000000|1732201289094
678575|-18000000|1732201289134
672323|-18000000|1732201289174
678669|-18000000|1732201289214
678731|-18000000|1732201289254
678661|-18000000|1732201289294
683972|-18000000|1732201289334
678667|-18000000|1732201289374
678669|-18000000|1732201289414
678636|-18000000|1732201289454
678640|-18000000|1732201289494
678752|-18000000|1732201289534
678719|-18000000|1732201289574
678707|-18000000|1732201289614
678713|-18000000|1732201289654
685047|-18000000|1732201289694
678630|-18000000|1732201289734
678717|-18000000|1732201289774
678592|-18000000|1732201289814
675332|-18000000|1732201289854
678665|-18000000|1732201289894
678729|-18000000|1732201289934
678668|-18000000|1732201289974
681145|-18000000|1732201290014
678717|-18000000|1732201290054
678696|-18000000|1732201290094
678597|-18000000|1732201290134
678633|-18000000|1732201290174
678653|-18000000|1732201290214
678762|-18000000|1732201290254
678725|-18000000|1732201290294
678669|-18000000|1732201290334
672616|-18000000|1732201290374
678687|-18000000|1732201290414
678563|-18000000|1732201290454
678645|-18000000|1732201290494
684746|-18000000|1732201290534
678636|-18000000|1732201290574
678609|-18000000|1732201290614
678658|-18000000|1732201290654
684279|-18000000|1732201290694
678760|-18000000|1732201290734
678719|-18000000|1732201290774
678607|-18000000|1732201290814
678105|-18000000|1732201290854
678568|-18000000|1732201290894
678694|-18000000|1732201290934
678702|-18000000|1732201290974
678712|-18000000|1732201291014
683563|-18000000|1732201291054
678631|-18000000|1732201291094
678682|-18000000|1732201291134
678637|-18000000|1732201291174
672488|-18000000|1732201291214
678655|-18000000|1732201291254
678698|-18000000|1732201291294
678699|-18000000|1732201291334
676927|-18000000|1732201291374
678700|-18000000|1732201291414
678685|-18000000|1732201291454
678717|-18000000|1732201291494
675154|-18000000|1732201291534
678597|-18000000|1732201291574
678635|-18000000|1732201291614
678596|-18000000|1732201291654
678712|-18000000|1732201291694
673278|-18000000|1732201291734
678679|-18000000|1732201291774
678599|-18000000|1732201291814
678667|-18000000|1732201291854
676905|-18000000|1732201291894
678730|-18000000|1732201291934
678652|-18000000|1732201291974
678685|-18000000|1732201292014
684740|-18000000|1732201292994
678684|-18000000|1732201293035
678668|-18000000|1732201293074
678727|-18000000|1732201293115
680599|-18000000|1732201293155
678709|-18000000|1732201293195
678576|-18000000|1732201293235
678678|-18000000|1732201293275
677173|-18000000|1732201293315
678639|-18000000|1732201293355
678747|-18000000|1732201293396
678655|-18000000|1732201293436
676139|-18000000|1732201293476
678679|-18000000|1732201293516
678721|-18000000|1732201293556
678642|-18000000|1732201293596
673218|-18000000|1732201293637
678707|-18000000|1732201293677
678661|-18000000|1732201293717
678672|-18000000|1732201293757
678397|-18000000|1732201293797
678714|-18000000|1732201293838
678690|-18000000|1732201293877
678614|-18000000|1732201293918
678636|-18000000|1732201293958
683676|-18000000|1732201293998
678658|-18000000|1732201294038
678680|-18000000|1732201294078
678681|-18000000|1732201294118
677631|-18000000|1732201294159
678586|-18000000|1732201294199
678522|-18000000|1732201294239
678753|-18000000|1732201294279
672621|-18000000|1732201294319
678707|-18000000|1732201294360
678618|-18000000|1732201294400
678653|-18000000|1732201294440
674797|-18000000|1732201294480
678629|-18000000|1732201294520
678611|-18000000|1732201294561
678647|-18000000|1732201294601
678672|-18000000|1732201294642
679677|-18000000|1732201294682
678752|-18000000|1732201294722
678686|-18000000|1732201294762
678719|-18000000|1732201294802
683067|-18000000|1732201294843
678732|-18000000|1732201294883
678675|-18000000|1732201294923
678633|-18000000|1732201294963
680944|-18000000|1732201295004
678610|-18000000|1732201295044
678663|-18000000|1732201295084
678628|-18000000|1732201295124
684440|-18000000|1732201295165
678726|-18000000|1732201295205
678638|-18000000|1732201295246
678634|-18000000|1732201295285
678709|-18000000|1732201295326
678711|-18000000|1732201295366
678657|-18000000|1732201295406
678697|-18000000|1732201295447
678710|-18000000|1732201295487
673630|-18000000|1732201295527
678654|-18000000|1732201295567
678699|-18000000|1732201295607
678694|-18000000|1732201295648
679681|-18000000|1732201295688
678710|-18000000|1732201295728
678655|-18000000|1732201295769
678738|-18000000|1732201295809
674907|-18000000|1732201295849
678658|-18000000|1732201295889
678630|-18000000|1732201295929
678682|-18000000|1732201295970
678684|-18000000|1732201296010
678676|-18000000|1732201296051
678637|-18000000|1732201296091
678690|-18000000|1732201296131
678672|-18000000|1732201296171
684592|-18000000|1732201296211
678644|-18000000|1732201296252
678690|-18000000|1732201296292
678656|-18000000|1732201296332
674539|-18000000|1732201296372
678699|-18000000|1732201296412
678700|-18000000|1732201296453
678679|-18000000|1732201296492
683600|-18000000|1732201296533
678761|-18000000|1732201296573
678615|-18000000|1732201296613
678575|-18000000|1732201296653
678578|-18000000|1732201296693
678597|-18000000|1732201296734
678652|-18000000|1732201296774
678689|-18000000|1732201296814
678624|-18000000|1732201296854
682761|-18000000|1732201296894
678618|-18000000|1732201296934
678708|-18000000|1732201296975
678654|-18000000|1732201297015
672604|-18000000|1732201297055
678601|-18000000|1732201297095
678634|-18000000|1732201297135
678644|-18000000|1732201297176
684549|-18000000|1732201297216
678599|-18000000|1732201297256
678652|-18000000|1732201297296
678668|-18000000|1732201297337
678657|-18000000|1732201297377
678706|-18000000|1732201297417
678707|-18000000|1732201297458
678663|-18000000|1732201297498
678652|-18000000|1732201297538
675164|-18000000|1732201297578
678631|-18000000|1732201297618
678638|-18000000|1732201297659
678644|-18000000|1732201297699
674530|-18000000|1732201297739
678698|-18000000|1732201297779
678564|-18000000|1732201297820
678749|-18000000|1732201297860
677298|-18000000|1732201297900
678659|-18000000|1732201297940
678665|-18000000|1732201297981
678717|-18000000|1732201298021
678739|-18000000|1732201298061
678658|-18000000|1732201298101
678659|-18000000|1732201298141
678639|-18000000|1732201298182
678733|-18000000|1732201298222
676782|-18000000|1732201298263
678617|-18000000|1732201298302
678624|-18000000|1732201298343
678615|-18000000|1732201298383
684326|-18000000|1732201298423
678663|-18000000|1732201298464
678707|-18000000|1732201298504
678629|-18000000|1732201298544
676021|-18000000|1732201298584
678575|-18000000|1732201298624
678606|-18000000|1732201298665
678626|-18000000|1732201298705
678620|-18000000|1732201298745
678611|-18000000|1732201298785
678640|-18000000|1732201298826
678648|-18000000|1732201298866
683080|-18000000|1732201298906
678604|-18000000|1732201298947
678600|-18000000|1732201298987
678698|-18000000|1732201299027
673568|-18000000|1732201299067
678691|-18000000|1732201299107
678644|-18000000|1732201299147
678571|-18000000|1732201299187
677053|-18000000|1732201299228
678588|-18000000|1732201299268
678610|-18000000|1732201299308
678594|-18000000|1732201299348
678693|-18000000|1732201299388
678533|-18000000|1732201299428
678660|-18000000|1732201299469
678712|-18000000|1732201299509
678500|-18000000|1732201299549
683413|-18000000|1732201299589
678611|-18000000|1732201299629
678653|-18000000|1732201299670
678574|-18000000|1732201299710
681942|-18000000|1732201299750
678579|-18000000|1732201299790
678652|-18000000|1732201299830
678675|-18000000|1732201299871
679998|-18000000|1732201299911
678657|-18000000|1732201299951
678622|-18000000|1732201299991
678682|-18000000|1732201300031
678614|-18000000|1732201300072
678561|-18000000|1732201300112
678610|-18000000|1732201300152
678665|-18000000|1732201300192
678637|-18000000|1732201300233
675860|-18000000|1732201300273
678649|-18000000|1732201300313
678719|-18000000|1732201300353
678633|-18000000|1732201300393
673482|-18000000|1732201300434
678714|-18000000|1732201300474
678717|-18000000|1732201300514
678637|-18000000|1732201300554
674415|-18000000|1732201300595
678655|-18000000|1732201300635
678620|-18000000|1732201300676
678714|-18000000|1732201300716
678614|-18000000|1732201300756
678592|-18000000|1732201300796
678669|-18000000|1732201300836
678605|-18000000|1732201300877
678709|-18000000|1732201300917
680529|-18000000|1732201300957
678670|-18000000|1732201300997
678698|-18000000|1732201301038
678632|-18000000|1732201301078
678755|-18000000|1732201301118
678696|-18000000|1732201301158
678651|-18000000|1732201301199
678661|-18000000|1732201301239
677163|-18000000|1732201301279
678633|-18000000|1732201301319
678694|-18000000|1732201301360
678651|-18000000|1732201301400
678664|-18000000|1732201301440
678659|-18000000|1732201301481
678622|-18000000|1732201301521
678572|-18000000|1732201301561
678642|-18000000|1732201301601
680787|-18000000|1732201301641
678588|-18000000|1732201301682
678621|-18000000|1732201301722
678630|-18000000|1732201301762
674106|-18000000|1732201301802
678598|-18000000|1732201301843
678615|-18000000|1732201301883
678623|-18000000|1732201301923
681504|-18000000|1732201301963
678610|-18000000|1732201302003
678650|-18000000|1732201302043
678656|-18000000|1732201302084
678634|-18000000|1732201302124
678709|-18000000|1732201302164
678712|-18000000|1732201302204
678645|-18000000|1732201302244
678600|-18000000|1732201302285
674335|-18000000|1732201302325
678675|-18000000|1732201302365
678543|-18000000|1732201302405
678605|-18000000|1732201302445
684147|-18000000|1732201302486
678733|-18000000|1732201302525
678678|-18000000|1732201302566
678648|-18000000|1732201302606
684402|-18000000|1732201302646
678633|-18000000|1732201302687
678651|-18000000|1732201302727
678665|-18000000|1732201302767
678649|-18000000|1732201302807
678650|-18000000|1732201302847
678613|-18000000|1732201302888
678601|-18000000|1732201302928
678625|-18000000|1732201302968
676622|-18000000|1732201303008
678639|-18000000|1732201303048
678742|-18000000|1732201303089
678642|-18000000|1732201303129
684006|-18000000|1732201303169
678618|-18000000|1732201303209
678591|-18000000|1732201303250
678526|-18000000|1732201303290
681934|-18000000|1732201303330
678613|-18000000|1732201303370
678641|-18000000|1732201303411
678629|-18000000|1732201303451
678633|-18000000|1732201303492
678546|-18000000|1732201303531
678728|-18000000|1732201303572
678609|-18000000|1732201303612
678625|-18000000|1732201303652
672628|-18000000|1732201303693
678463|-18000000|1732201303733
678553|-18000000|1732201303773
678663|-18000000|1732201303813
672736|-18000000|1732201303853
678673|-18000000|1732201303895
678643|-18000000|1732201303935
678645|-18000000|1732201303975
679554|-18000000|1732201304015
678703|-18000000|1732201304055
678533|-18000000|1732201304096
678655|-18000000|1732201304136
678572|-18000000|1732201304176
678699|-18000000|1732201304216
678674|-18000000|1732201304256
678643|-18000000|1732201304297
678671|-18000000|1732201304337
672524|-18000000|1732201304377
678675|-18000000|1732201304418
678617|-18000000|1732201304458
672536|-18000000|1732201304498
678692|-18000000|1732201304538
678644|-18000000|1732201304579
678619|-18000000|1732201304619
683021|-18000000|1732201304659
678675|-18000000|1732201304699
678550|-18000000|1732201304739
678620|-18000000|1732201304779
678606|-18000000|1732201304820
678632|-18000000|1732201304860
678554|-18000000|1732201304900
678589|-18000000|1732201304940
678590|-18000000|1732201304980
683062|-18000000|1732201305020
678609|-18000000|1732201305059
678665|-18000000|1732201305098
678650|-18000000|1732201305138
684308|-18000000|1732201305178
678683|-18000000|1732201305218
678710|-18000000|1732201305258
678615|-18000000|1732201305298
679871|-18000000|1732201305338
678632|-18000000|1732201305378
678627|-18000000|1732201305418
678626|-18000000|1732201305458
678535|-18000000|1732201305498
678606|-18000000|1732201305538
678699|-18000000|1732201305578
678664|-18000000|1732201305618
678681|-18000000|1732201305658
684633|-18000000|1732201305698
678560|-18000000|1732201305738
678588|-18000000|1732201305778
678750|-18000000|1732201305818
672503|-18000000|1732201305858
678627|-18000000|1732201305898
678689|-18000000|1732201305938
678542|-18000000|1732201305978
676658|-18000000|1732201306018
678686|-18000000|1732201306058
678624|-18000000|1732201306098
678580|-18000000|1732201306138
678615|-18000000|1732201306178
678673|-18000000|1732201306218
678644|-18000000|1732201306258
678621|-18000000|1732201306298
678649|-18000000|1732201306338
684331|-18000000|1732201306378
678574|-18000000|1732201306418
678690|-18000000|1732201306458
678679|-18000000|1732201306498
673467|-18000000|1732201306538
678693|-18000000|1732201306578
678624|-18000000|1732201306618
678638|-18000000|1732201306658
682988|-18000000|1732201306698
678713|-18000000|1732201306738
678579|-18000000|1732201306778
678618|-18000000|1732201306818
678579|-18000000|1732201306858
678568|-18000000|1732201306898
678638|-18000000|1732201306938
678586|-18000000|1732201306978
678620|-18000000|1732201307018
672819|-18000000|1732201307058
678596|-18000000|1732201307098
678557|-18000000|1732201307138
678626|-18000000|1732201307178
676381|-18000000|1732201307218
678636|-18000000|1732201307258
678593|-18000000|1732201307298
678520|-18000000|1732201307338
676301|-18000000|1732201307378
678686|-18000000|1732201307418
678619|-18000000|1732201307458
678638|-18000000|1732201307498
678606|-18000000|1732201307538
678585|-18000000|1732201307578
678610|-18000000|1732201307618
678623|-18000000|1732201307658
678654|-18000000|1732201307698
684917|-18000000|1732201307738
678635|-18000000|1732201307778
678604|-18000000|1732201307818
678650|-18000000|1732201307858
680859|-18000000|1732201307898
678644|-18000000|1732201307938
678644|-18000000|1732201307978
678639|-18000000|1732201308018
678520|-18000000|1732201308058
678558|-18000000|1732201308098
678605|-18000000|1732201308138
678603|-18000000|1732201308178
676742|-18000000|1732201308218
678565|-18000000|1732201308258
678594|-18000000|1732201308298
678588|-18000000|1732201308338
678706|-18000000|1732201308378
683971|-18000000|1732201308418
678605|-18000000|1732201308458
678679|-18000000|1732201308498
678679|-18000000|1732201308538
676240|-18000000|1732201308578
678652|-18000000|1732201308618
678553|-18000000|1732201308658
678562|-18000000|1732201308698
683181|-18000000|1732201308738
678702|-18000000|1732201308778
678615|-18000000|1732201308818
678630|-18000000|1732201308858
680788|-18000000|1732201308898
678696|-18000000|1732201308938
678614|-18000000|1732201308978
678595|-18000000|1732201309018
678686|-18000000|1732201309058
678077|-18000000|1732201309098
678624|-18000000|1732201309138
678615|-18000000|1732201309178
678590|-18000000|1732201309218
682602|-18000000|1732201309258
678694|-18000000|1732201309298
678560|-18000000|1732201309338
678617|-18000000|1732201309378
680480|-18000000|1732201309418
678654|-18000000|1732201309458
678613|-18000000|1732201309498
678599|-18000000|1732201309538
679841|-18000000|1732201309578
678600|-18000000|1732201309618
678654|-18000000|1732201309658
678677|-18000000|1732201309698
678673|-18000000|1732201309738
676120|-18000000|1732201309778
678572|-18000000|1732201309818
678514|-18000000|1732201309858
678657|-18000000|1732201309898
682926|-18000000|1732201309938
678654|-18000000|1732201309978
678640|-18000000|1732201310018
679042|-18000000|1732201310058
678664|-18000000|1732201310098
678652|-18000000|1732201310138
678575|-18000000|1732201310178
682009|-18000000|1732201310218
678566|-18000000|1732201310258
678514|-18000000|1732201310298
678650|-18000000|1732201310338
678579|-18000000|1732201310378
673500|-18000000|1732201310418
678716|-18000000|1732201310458
678751|-18000000|1732201310498
678689|-18000000|1732201310538
684815|-18000000|1732201310578
678508|-18000000|1732201310618
678534|-18000000|1732201310658
678716|-18000000|1732201310698
679369|-18000000|1732201310738
678613|-18000000|1732201310778
678662|-18000000|1732201310818
678622|-18000000|1732201310858
676505|-18000000|1732201310898
678542|-18000000|1732201310938
678568|-18000000|1732201310978
678553|-18000000|1732201311018
678563|-18000000|1732201311058
677142|-18000000|1732201311098
678547|-18000000|1732201311138
678543|-18000000|1732201311178
678645|-18000000|1732201311218
682214|-18000000|1732201311258
678673|-18000000|1732201311298
678623|-18000000|1732201311338
678556|-18000000|1732201311378
678846|-18000000|1732201311418
678587|-18000000|1732201311458
678585|-18000000|1732201311498
678657|-18000000|1732201311538
684205|-18000000|1732201311578
678597|-18000000|1732201311618
678635|-18000000|1732201311658
678526|-18000000|1732201311698
678559|-18000000|1732201311738
678701|-18000000|1732201311778
678592|-18000000|1732201311818
678575|-18000000|1732201311858
678634|-18000000|1732201311898
683945|-18000000|1732201311938
678565|-18000000|1732201311978
678588|-18000000|1732201312018
678604|-18000000|1732201312058
676553|-18000000|1732201312098
678652|-18000000|1732201312138
678691|-18000000|1732201312178
678611|-18000000|1732201312218
681356|-18000000|1732201312258
678624|-18000000|1732201312298
678579|-18000000|1732201312338
678629|-18000000|1732201312378
678548|-18000000|1732201312418
678605|-18000000|1732201312458
678678|-18000000|1732201312498
678640|-18000000|1732201312538
678626|-18000000|1732201312578
683301|-18000000|1732201312618
678571|-18000000|1732201312658
678631|-18000000|1732201312698
678594|-18000000|1732201312738
674125|-18000000|1732201312778
678617|-18000000|1732201312818
678509|-18000000|1732201312858
678598|-18000000|1732201312898
681684|-18000000|1732201312938
678647|-18000000|1732201312978
678638|-18000000|1732201313018
678535|-18000000|1732201313058
678603|-18000000|1732201313098
678645|-18000000|1732201313138
678641|-18000000|1732201313178
678588|-18000000|1732201313218
678604|-18000000|1732201313258
676180|-18000000|1732201313298
678541|-18000000|1732201313338
678623|-18000000|1732201313378
678655|-18000000|1732201313418
674064|-18000000|1732201313458
678627|-18000000|1732201313498
678653|-18000000|1732201313538
678607|-18000000|1732201313578
683322|-18000000|1732201313618
678609|-18000000|1732201313658
678499|-18000000|1732201313698
678591|-18000000|1732201313738
678591|-18000000|1732201313778
678642|-18000000|1732201313818
678679|-18000000|1732201313858
678549|-18000000|1732201313898
678679|-18000000|1732201313938
684337|-18000000|1732201313978
678581|-18000000|1732201314018
678603|-18000000|1732201314058
678610|-18000000|1732201314098
679451|-18000000|1732201314138
678663|-18000000|1732201314178
678672|-18000000|1732201314218
678591|-18000000|1732201314258
674074|-18000000|1732201314298
678652|-18000000|1732201314338
678576|-18000000|1732201314378
678585|-18000000|1732201314418
678581|-18000000|1732201314458
678613|-18000000|1732201314498
678599|-18000000|1732201314538
678568|-18000000|1732201314578
678589|-18000000|1732201314618
685026|-18000000|1732201314658
678593|-18000000|1732201314698
678575|-18000000|1732201314738
678595|-18000000|1732201314778
683963|-18000000|1732201314818
678601|-18000000|1732201314858
678525|-18000000|1732201314898
678593|-18000000|1732201314938
681331|-18000000|1732201314978
678588|-18000000|1732201315018
678635|-18000000|1732201315058
678583|-18000000|1732201315098
678642|-18000000|1732201315138
678510|-18000000|1732201315178
678588|-18000000|1732201315218
678708|-18000000|1732201315258
681443|-18000000|1732201315298
678511|-18000000|1732201315338
678591|-18000000|1732201315378
678603|-18000000|1732201315418
679658|-18000000|1732201315458
678654|-18000000|1732201315498
678539|-18000000|1732201315538
678583|-18000000|1732201315578
674891|-18000000|1732201315618
678603|-18000000|1732201315658
678556|-18000000|1732201315698
678580|-18000000|1732201315738
678532|-18000000|1732201315778
678537|-18000000|1732201315818
678597|-18000000|1732201315858
678586|-18000000|1732201315898
678571|-18000000|1732201315938
681629|-18000000|1732201315978
678574|-18000000|1732201316018
678510|-18000000|1732201316058
678575|-18000000|1732201316098
673152|-18000000|1732201316138
678562|-18000000|1732201316178
678583|-18000000|1732201316218
678661|-18000000|1732201316258
674341|-18000000|1732201316298
678619|-18000000|1732201316338
678642|-18000000|1732201316378
678642|-18000000|1732201316418
678592|-18000000|1732201316458
678581|-18000000|1732201316498
678530|-18000000|1732201316538
678646|-18000000|1732201316578
678703|-18000000|1732201316618
684879|-18000000|1732201316658
678666|-18000000|1732201316698
678583|-18000000|1732201316738
678536|-18000000|1732201316778
673719|-18000000|1732201316818
678644|-18000000|1732201316858
678631|-18000000|1732201316898
678558|-18000000|1732201316938
684651|-18000000|1732201316978
678522|-18000000|1732201317018
678557|-18000000|1732201317057
678583|-18000000|1732201317097
678640|-18000000|1732201317137
678603|-18000000|1732201317177
678584|-18000000|1732201317217
678589|-18000000|1732201317257
678627|-18000000|1732201317297
674880|-18000000|1732201317337
678717|-18000000|1732201317377
678477|-18000000|1732201317417
678597|-18000000|1732201317457
678126|-18000000|1732201317497
678741|-18000000|1732201317537
678539|-18000000|1732201317577
678598|-18000000|1732201317617
681324|-18000000|1732201317657
678576|-18000000|1732201317697
678596|-18000000|1732201317737
678607|-18000000|1732201317777
678618|-18000000|1732201317817
678611|-18000000|1732201317857
678568|-18000000|1732201317897
678561|-18000000|1732201317937
678726|-18000000|1732201317977
672495|-18000000|1732201318017
678661|-18000000|1732201318057
678648|-18000000|1732201318097
678638|-18000000|1732201318137
684035|-18000000|1732201318177
678585|-18000000|1732201318217
678582|-18000000|1732201318257
678530|-18000000|1732201318297
684674|-18000000|1732201318337
678681|-18000000|1732201318377
678543|-18000000|1732201318417
678518|-18000000|1732201318457
678619|-18000000|1732201318497
678556|-18000000|1732201318537
678516|-18000000|1732201318577
678501|-18000000|1732201318617
678534|-18000000|1732201318657
677456|-18000000|1732201318697
678660|-18000000|1732201318737
678537|-18000000|1732201318777
678550|-18000000|1732201318817
676362|-18000000|1732201318857
678520|-18000000|1732201318897
678602|-18000000|1732201318937
678645|-18000000|1732201318977
684470|-18000000|1732201319017
678600|-18000000|1732201319057
678638|-18000000|1732201319097
678549|-18000000|1732201319137
678592|-18000000|1732201319177
678648|-18000000|1732201319217
678545|-18000000|1732201319257
678490|-18000000|1732201319297
678627|-18000000|1732201319337
681032|-18000000|1732201319377
678521|-18000000|1732201319417
678565|-18000000|1732201319457
678615|-18000000|1732201319497
676202|-18000000|1732201319537
678651|-18000000|1732201319577
678574|-18000000|1732201319617
678578|-18000000|1732201319657
673543|-18000000|1732201319697
678511|-18000000|1732201319737
678633|-18000000|1732201319777
678593|-18000000|1732201319817
678588|-18000000|1732201319857
678519|-18000000|1732201319897
678699|-18000000|1732201319937
678538|-18000000|1732201319977
678551|-18000000|1732201320017
674347|-18000000|1732201320057
678616|-18000000|1732201320097
678615|-18000000|1732201320137
678551|-18000000|1732201320177
674541|-18000000|1732201320217
678460|-18000000|1732201320257
678540|-18000000|1732201320297
678575|-18000000|1732201320337
673350|-18000000|1732201320377
678502|-18000000|1732201320417
678563|-18000000|1732201320457
678492|-18000000|1732201320497
678549|-18000000|1732201320537
678587|-18000000|1732201320577
678576|-18000000|1732201320617
678536|-18000000|1732201320657
678512|-18000000|1732201320697
682374|-18000000|1732201320737
678648|-18000000|1732201320777
678620|-18000000|1732201320817
678580|-18000000|1732201320857
682719|-18000000|1732201320897
678600|-18000000|1732201320937
678639|-18000000|1732201320977
674191|-18000000|1732201321017
678641|-18000000|1732201321057
678491|-18000000|1732201321097
678563|-18000000|1732201321137
678499|-18000000|1732201321177
678558|-18000000|1732201321217
678594|-18000000|1732201321257
678587|-18000000|1732201321297
678643|-18000000|1732201321337
684428|-18000000|1732201321377
678581|-18000000|1732201321417
678587|-18000000|1732201321457
678504|-18000000|1732201321497
672925|-18000000|1732201321537
678551|-18000000|1732201321577
678591|-18000000|1732201321617
678565|-18000000|1732201321657
679540|-18000000|1732201321697
678610|-18000000|1732201321737
678599|-18000000|1732201321777
678659|-18000000|1732201321817
678637|-18000000|1732201321857
678566|-18000000|1732201321897
678521|-18000000|1732201321937
678523|-18000000|1732201321977
678567|-18000000|1732201322017
684963|-18000000|1732201322057
678604|-18000000|1732201322097
678601|-18000000|1732201322137
678477|-18000000|1732201322177
682121|-18000000|1732201322217
678593|-18000000|1732201322257
678556|-18000000|1732201322297
678653|-18000000|1732201322337
674219|-18000000|1732201322377
678530|-18000000|1732201322417
678654|-18000000|1732201322457
678557|-18000000|1732201322497
678590|-18000000|1732201322537
678580|-18000000|1732201322577
678540|-18000000|1732201322617
678580|-18000000|1732201322657
678613|-18000000|1732201322697
682285|-18000000|1732201322737
678606|-18000000|1732201322777
678613|-18000000|1732201322817
678617|-18000000|1732201322857
672785|-18000000|1732201322897
678616|-18000000|1732201322937
678559|-18000000|1732201322977
678566|-18000000|1732201323017
672571|-18000000|1732201323057
678585|-18000000|1732201323097
678565|-18000000|1732201323137
678574|-18000000|1732201323177
678540|-18000000|1732201323217
678467|-18000000|1732201323257
678550|-18000000|1732201323297
678619|-18000000|1732201323337
678697|-18000000|1732201323377
684935|-18000000|1732201323417
678574|-18000000|1732201323457
678585|-18000000|1732201323497
678567|-18000000|1732201323537
673218|-18000000|1732201323577
678540|-18000000|1732201323617
678636|-18000000|1732201323657
678536|-18000000|1732201323697
672748|-18000000|1732201323737
678508|-18000000|1732201323777
678581|-18000000|1732201323817
678452|-18000000|1732201323857
678552|-18000000|1732201323897
678491|-18000000|1732201323937
678547|-18000000|1732201323977
678548|-18000000|1732201324017
678571|-18000000|1732201324057
680557|-18000000|1732201324097
678548|-18000000|1732201324137
678554|-18000000|1732201324177
678471|-18000000|1732201324217
683919|-18000000|1732201324257
678551|-18000000|1732201324297
678632|-18000000|1732201324337
678631|-18000000|1732201324377
682098|-18000000|1732201324417
678560|-18000000|1732201324457
678590|-18000000|1732201324497
678618|-18000000|1732201324537
676297|-18000000|1732201324577
678616|-18000000|1732201324617
678602|-18000000|1732201324657
678513|-18000000|1732201324697
678526|-18000000|1732201324737
684291|-18000000|1732201324777
678541|-18000000|1732201324817
678522|-18000000|1732201324857
678403|-18000000|1732201324897
680384|-18000000|1732201324937
678556|-18000000|1732201324977
678602|-18000000|1732201325017
678532|-18000000|1732201325057
672560|-18000000|1732201325097
678638|-18000000|1732201325137
678566|-18000000|1732201325177
678511|-18000000|1732201325217
677955|-18000000|1732201325257
678553|-18000000|1732201325297
678449|-18000000|1732201325337
678523|-18000000|1732201325377
678522|-18000000|1732201325417
674389|-18000000|1732201325457
678513|-18000000|1732201325497
678551|-18000000|1732201325537
678594|-18000000|1732201325577
679075|-18000000|1732201325617
678578|-18000000|1732201325657
678526|-18000000|1732201325697
678490|-18000000|1732201325737
683055|-18000000|1732201325777
678575|-18000000|1732201325817
678553|-18000000|1732201325857
678594|-18000000|1732201325897
680311|-18000000|1732201325937
678640|-18000000|1732201325977
678494|-18000000|1732201326017
678568|-18000000|1732201326057
678522|-18000000|1732201326097
678484|-18000000|1732201326137
678530|-18000000|1732201326177
678567|-18000000|1732201326217
678509|-18000000|1732201326257
681308|-18000000|1732201326297
678558|-18000000|1732201326337
678567|-18000000|1732201326377
678558|-18000000|1732201326417
672520|-18000000|1732201326457
678582|-18000000|1732201326497
678513|-18000000|1732201326537
681747|-18000000|1732201326577
678526|-18000000|1732201326617
678510|-18000000|1732201326657
678563|-18000000|1732201326697
678528|-18000000|1732201326737
676417|-18000000|1732201326777
678600|-18000000|1732201326817
678545|-18000000|1732201326857
678457|-18000000|1732201326897
672322|-18000000|1732201326937
678436|-18000000|1732201326977
678508|-18000000|1732201327017
678502|-18000000|1732201327057
680686|-18000000|1732201327097
678552|-18000000|1732201327137
678500|-18000000|1732201327177
678555|-18000000|1732201327217
678323|-18000000|1732201327257
678577|-18000000|1732201327297
678501|-18000000|1732201327337
678523|-18000000|1732201327377
678558|-18000000|1732201327417
677610|-18000000|1732201327457
678585|-18000000|1732201327497
678518|-18000000|1732201327537
678523|-18000000|1732201327577
672442|-18000000|1732201327617
678545|-18000000|1732201327657
678629|-18000000|1732201327697
678553|-18000000|1732201327737
679760|-18000000|1732201327777
678574|-18000000|1732201327817
678516|-18000000|1732201327857
678427|-18000000|1732201327897
676074|-18000000|1732201327937
678479|-18000000|1732201327977
678517|-18000000|1732201328017
678469|-18000000|1732201328057
678580|-18000000|1732201328097
678512|-18000000|1732201328137
678442|-18000000|1732201328177
678444|-18000000|1732201328217
678537|-18000000|1732201328257
677284|-18000000|1732201328297
678583|-18000000|1732201328337
678492|-18000000|1732201328377
678522|-18000000|1732201328417
678443|-18000000|1732201328457
678530|-18000000|1732201328497
678550|-18000000|1732201328537
678527|-18000000|1732201328577
678741|-18000000|1732201328617
678554|-18000000|1732201328657
678464|-18000000|1732201328697
678510|-18000000|1732201328737
678553|-18000000|1732201328777
678596|-18000000|1732201328817
678571|-18000000|1732201328857
678511|-18000000|1732201328897
678551|-18000000|1732201328937
681319|-18000000|1732201328977
678447|-18000000|1732201329017
678520|-18000000|1732201329057
678521|-18000000|1732201329097
673183|-18000000|1732201329137
678512|-18000000|1732201329177
678475|-18000000|1732201329217
678535|-18000000|1732201329257
673153|-18000000|1732201329297
678597|-18000000|1732201329337
678577|-18000000|1732201329377
678499|-18000000|1732201329417
678617|-18000000|1732201329457
678500|-18000000|1732201329497
678523|-18000000|1732201329537
678529|-18000000|1732201329577
678550|-18000000|1732201329617
684511|-18000000|1732201329657
678475|-18000000|1732201329697
678548|-18000000|1732201329737
678467|-18000000|1732201329777
674211|-18000000|1732201329817
678503|-18000000|1732201329857
678502|-18000000|1732201329897
678523|-18000000|1732201329937
677705|-18000000|1732201329977
678464|-18000000|1732201330017
678570|-18000000|1732201330057
678544|-18000000|1732201330097
678509|-18000000|1732201330137
678622|-18000000|1732201330177
678515|-18000000|1732201330217
678533|-18000000|1732201330257
678567|-18000000|1732201330297
673476|-18000000|1732201330337
678452|-18000000|1732201330377
678424|-18000000|1732201330417
678517|-18000000|1732201330457
683581|-18000000|1732201330497
678569|-18000000|1732201330537
678598|-18000000|1732201330577
678592|-18000000|1732201330617
672973|-18000000|1732201330657
678545|-18000000|1732201330697
678558|-18000000|1732201330737
678526|-18000000|1732201330777
678454|-18000000|1732201330817
678487|-18000000|1732201330857
678516|-18000000|1732201330897
678473|-18000000|1732201330937
678561|-18000000|1732201330977
678556|-18000000|1732201331017
678492|-18000000|1732201331057
678458|-18000000|1732201331097
678435|-18000000|1732201331137
679524|-18000000|1732201331177
678546|-18000000|1732201331217
678513|-18000000|1732201331257
678511|-18000000|1732201331297
682598|-18000000|1732201331337
678589|-18000000|1732201331377
678551|-18000000|1732201331417
678538|-18000000|1732201331457
678514|-18000000|1732201331497
678513|-18000000|1732201331537
678557|-18000000|1732201331577
678536|-18000000|1732201331617
678433|-18000000|1732201331657
684006|-18000000|1732201331697
678532|-18000000|1732201331737
678509|-18000000|1732201331777
678527|-18000000|1732201331817
678334|-18000000|1732201331857
678518|-18000000|1732201331897
678590|-18000000|1732201331937
678532|-18000000|1732201331977
682141|-18000000|1732201332017
678536|-18000000|1732201332057
678518|-18000000|1732201332097
678535|-18000000|1732201332137
678603|-18000000|1732201332177
678529|-18000000|1732201332217
678539|-18000000|1732201332257
678522|-18000000|1732201332297
678532|-18000000|1732201332337
678560|-18000000|1732201332377
678578|-18000000|1732201332417
678584|-18000000|1732201332457
672446|-18000000|1732201332497
678498|-18000000|1732201332537
678549|-18000000|1732201332577
678510|-18000000|1732201332617
684153|-18000000|1732201332657
678503|-18000000|1732201332697
678602|-18000000|1732201332737
678575|-18000000|1732201332777
678583|-18000000|1732201332817
678499|-18000000|1732201332857
678473|-18000000|1732201332897
678539|-18000000|1732201332937
678559|-18000000|1732201332977
684746|-18000000|1732201333017
678462|-18000000|1732201333057
678533|-18000000|1732201333097
678541|-18000000|1732201333137
676121|-18000000|1732201333177
678587|-18000000|1732201333217
678506|-18000000|1732201333257
678491|-18000000|1732201333297
677165|-18000000|1732201333337
678552|-18000000|1732201333377
678644|-18000000|1732201333417
678514|-18000000|1732201333457
678449|-18000000|1732201333497
678478|-18000000|1732201333537
678523|-18000000|1732201333577
678544|-18000000|1732201333617
678547|-18000000|1732201333657
683822|-18000000|1732201333697
678554|-18000000|1732201333737
678485|-18000000|1732201333777
678522|-18000000|1732201333817
681933|-18000000|1732201333857
678497|-18000000|1732201333897
678471|-18000000|1732201333937
678473|-18000000|1732201333977
681145|-18000000|1732201334017
678638|-18000000|1732201334057
678460|-18000000|1732201334097
678540|-18000000|1732201334137
678462|-18000000|1732201334177
678585|-18000000|1732201334217
678560|-18000000|1732201334257
678515|-18000000|1732201334297
678496|-18000000|1732201334337
672394|-18000000|1732201334377
678481|-18000000|1732201334417
678524|-18000000|1732201334457
678483|-18000000|1732201334497
672911|-18000000|1732201334537
678491|-18000000|1732201334577
678575|-18000000|1732201334617
678570|-18000000|1732201334657
684481|-18000000|1732201334697
678535|-18000000|1732201334737
678522|-18000000|1732201334777
678439|-18000000|1732201334817
678533|-18000000|1732201334857
678529|-18000000|1732201334897
678546|-18000000|1732201334937
678559|-18000000|1732201334977
678585|-18000000|1732201335017
672296|-18000000|1732201335057
678515|-18000000|1732201335097
678522|-18000000|1732201335137
678528|-18000000|1732201335177
672465|-18000000|1732201335217
678558|-18000000|1732201335257
678522|-18000000|1732201335297
678483|-18000000|1732201335337
676611|-18000000|1732201335377
678533|-18000000|1732201335417
678593|-18000000|1732201335457
678565|-18000000|1732201335497
678483|-18000000|1732201335537
678554|-18000000|1732201335577
678558|-18000000|1732201335617
678527|-18000000|1732201335657
678523|-18000000|1732201335697
673725|-18000000|1732201335737
678462|-18000000|1732201335777
678518|-18000000|1732201335817
678628|-18000000|1732201335857
678273|-18000000|1732201335897
678586|-18000000|1732201335937
678511|-18000000|1732201335977
678445|-18000000|1732201336017
677361|-18000000|1732201336057
678477|-18000000|1732201336097
678544|-18000000|1732201336137
678451|-18000000|1732201336177
678535|-18000000|1732201336217
678403|-18000000|1732201336257
678585|-18000000|1732201336297
678547|-18000000|1732201336337
678521|-18000000|1732201336377
677775|-18000000|1732201336417
678486|-18000000|1732201336457
678518|-18000000|1732201336497
678596|-18000000|1732201336537
684550|-18000000|1732201336577
678502|-18000000|1732201336617
678608|-18000000|1732201336657
678539|-18000000|1732201336697
672381|-18000000|1732201336737
678513|-18000000|1732201336777
678607|-18000000|1732201336817
678514|-18000000|1732201336857
678518|-18000000|1732201336897
678518|-18000000|1732201336937
678528|-18000000|1732201336977
678548|-18000000|1732201337017
678502|-18000000|1732201337057
679049|-18000000|1732201337097
678518|-18000000|1732201337137
678547|-18000000|1732201337177
678442|-18000000|1732201337217
676104|-18000000|1732201337257
678523|-18000000|1732201337297
678557|-18000000|1732201337337
678490|-18000000|1732201337377
684497|-18000000|1732201337417
678627|-18000000|1732201337457
678570|-18000000|1732201337497
678452|-18000000|1732201337537
678517|-18000000|1732201337577
678501|-18000000|1732201337617
678522|-18000000|1732201337657
678521|-18000000|1732201337697
678495|-18000000|1732201337737
682291|-18000000|1732201337777
678496|-18000000|1732201337817
678585|-18000000|1732201337857
678627|-18000000|1732201337897
678902|-18000000|1732201337937
678580|-18000000|1732201337977
678518|-18000000|1732201338017
678461|-18000000|1732201338057
677084|-18000000|1732201338097
678495|-18000000|1732201338137
678483|-18000000|1732201338177
678513|-18000000|1732201338217
678469|-18000000|1732201338257
678430|-18000000|1732201338297
678578|-18000000|1732201338337
678526|-18000000|1732201338377
674957|-18000000|1732201338417
678547|-18000000|1732201338457
678591|-18000000|1732201338497
678465|-18000000|1732201338537
677015|-18000000|1732201338577
678474|-18000000|1732201338617
678552|-18000000|1732201338657
678586|-18000000|1732201338697
679637|-18000000|1732201338737
678453|-18000000|1732201338777
678515|-18000000|1732201338817
678486|-18000000|1732201338857
678505|-18000000|1732201338897
678472|-18000000|1732201338937
678508|-18000000|1732201338977
678551|-18000000|1732201339017
678599|-18000000|1732201339057
677172|-18000000|1732201339097
678542|-18000000|1732201339137
678575|-18000000|1732201339177
678472|-18000000|1732201339217
672310|-18000000|1732201339257
678540|-18000000|1732201339297
678459|-18000000|1732201339337
678502|-18000000|1732201339377
681448|-18000000|1732201339417
678470|-18000000|1732201339457
678530|-18000000|1732201339497
678434|-18000000|1732201339537
678537|-18000000|1732201339577
678487|-18000000|1732201339617
678547|-18000000|1732201339657
678567|-18000000|1732201339697
678483|-18000000|1732201339737
677335|-18000000|1732201339777
678593|-18000000|1732201339817
678534|-18000000|1732201339857
678490|-18000000|1732201339897
673443|-18000000|1732201339937
678443|-18000000|1732201339977
678554|-18000000|1732201340017
678569|-18000000|1732201340057
672441|-18000000|1732201340097
678474|-18000000|1732201340137
678494|-18000000|1732201340177
678456|-18000000|1732201340217
678484|-18000000|1732201340257
678481|-18000000|1732201340297
678444|-18000000|1732201340337
678478|-18000000|1732201340377
678588|-18000000|1732201340417
682323|-18000000|1732201340457
678519|-18000000|1732201340497
678475|-18000000|1732201340537
678366|-18000000|1732201340577
684883|-18000000|1732201340617
678478|-18000000|1732201340657
678549|-18000000|1732201340697
678541|-18000000|1732201340737
678862|-18000000|1732201340777
678527|-18000000|1732201340817
678480|-18000000|1732201340857
678475|-18000000|1732201340897
677709|-18000000|1732201340937
678527|-18000000|1732201340977
678491|-18000000|1732201341018
678557|-18000000|1732201341058
678502|-18000000|1732201341098
672256|-18000000|1732201341138
678476|-18000000|1732201341178
678490|-18000000|1732201341218
678560|-18000000|1732201341258
678279|-18000000|1732201341298
678577|-18000000|1732201341338
678427|-18000000|1732201341378
678535|-18000000|1732201341418
672338|-18000000|1732201341458
678478|-18000000|1732201341498
678523|-18000000|1732201341538
678506|-18000000|1732201341578
680699|-18000000|1732201341618
678493|-18000000|1732201341658
678484|-18000000|1732201341698
678516|-18000000|1732201341738
678582|-18000000|1732201341778
679067|-18000000|1732201341818
678625|-18000000|1732201341858
678486|-18000000|1732201341898
678525|-18000000|1732201341938
674927|-18000000|1732201341978
678551|-18000000|1732201342018
678549|-18000000|1732201342058
678520|-18000000|1732201342098
678729|-18000000|1732201342138
678533|-18000000|1732201342178
678522|-18000000|1732201342218
678522|-18000000|1732201342258
680104|-18000000|1732201342298
678526|-18000000|1732201342338
678517|-18000000|1732201342378
678514|-18000000|1732201342418
678489|-18000000|1732201342458
679532|-18000000|1732201342498
678517|-18000000|1732201342538
678575|-18000000|1732201342578
678492|-18000000|1732201342618
672175|-18000000|1732201342658
678482|-18000000|1732201342698
678502|-18000000|1732201342738
678643|-18000000|1732201342778
684520|-18000000|1732201342818
678650|-18000000|1732201342858
678596|-18000000|1732201342898
678474|-18000000|1732201342938
675501|-18000000|1732201342978
678510|-18000000|1732201343018
678448|-18000000|1732201343058
678533|-18000000|1732201343098
678478|-18000000|1732201343138
680261|-18000000|1732201343178
678497|-18000000|1732201343218
678535|-18000000|1732201343258
678406|-18000000|1732201343298
675904|-18000000|1732201343338
678521|-18000000|1732201343378
678478|-18000000|1732201343418
678637|-18000000|1732201343458
672485|-18000000|1732201343498
678623|-18000000|1732201343538
678433|-18000000|1732201343578
678437|-18000000|1732201343618
684095|-18000000|1732201343658
678560|-18000000|1732201343698
678516|-18000000|1732201343738
678485|-18000000|1732201343778
678504|-18000000|1732201343818
680021|-18000000|1732201343858
678634|-18000000|1732201343898
678545|-18000000|1732201343938
678446|-18000000|1732201343978
680489|-18000000|1732201344018
678541|-18000000|1732201344058
678527|-18000000|1732201344098
676262|-18000000|1732201344138
678539|-18000000|1732201344178
678526|-18000000|1732201344218
678568|-18000000|1732201344258
676787|-18000000|1732201344298
678549|-18000000|1732201344338
678444|-18000000|1732201344378
678517|-18000000|1732201344418
678553|-18000000|1732201344458
678579|-18000000|1732201344498
678591|-18000000|1732201344538
678525|-18000000|1732201344578
678502|-18000000|1732201344618
683750|-18000000|1732201344658
678507|-18000000|1732201344698
678474|-18000000|1732201344738
678595|-18000000|1732201344778
678419|-18000000|1732201344818
678487|-18000000|1732201344858
678553|-18000000|1732201344898
678525|-18000000|1732201344938
672422|-18000000|1732201344978
678498|-18000000|1732201345018
678509|-18000000|1732201345058
678517|-18000000|1732201345098
678525|-18000000|1732201345138
678625|-18000000|1732201345178
678515|-18000000|1732201345218
678453|-18000000|1732201345258
678586|-18000000|1732201345298
672016|-18000000|1732201345338
678560|-18000000|1732201345378
678531|-18000000|1732201345418
678518|-18000000|1732201345458
673237|-18000000|1732201345498
678451|-18000000|1732201345538
678470|-18000000|1732201345578
678490|-18000000|1732201345618
677054|-18000000|1732201345658
678613|-18000000|1732201345698
678529|-18000000|1732201345738
678483|-18000000|1732201345778
678466|-18000000|1732201345818
678452|-18000000|1732201345858
678520|-18000000|1732201345898
678516|-18000000|1732201345938
678484|-18000000|1732201345978
684601|-18000000|1732201346018
678478|-18000000|1732201346058
678556|-18000000|1732201346098
678446|-18000000|1732201346138
683784|-18000000|1732201346178
678537|-18000000|1732201346218
678495|-18000000|1732201346258
678535|-18000000|1732201346298
676648|-18000000|1732201346338
678543|-18000000|1732201346378
678467|-18000000|1732201346418
678599|-18000000|1732201346458
678522|-18000000|1732201346498
678509|-18000000|1732201346538
678528|-18000000|1732201346578
678518|-18000000|1732201346618
678585|-18000000|1732201346658
672579|-18000000|1732201346698
678529|-18000000|1732201346738
678479|-18000000|1732201346778
678510|-18000000|1732201346818
673054|-18000000|1732201346858
678540|-18000000|1732201346898
678596|-18000000|1732201346938
678472|-18000000|1732201346978
682231|-18000000|1732201347018
678569|-18000000|1732201347058
678540|-18000000|1732201347098
678553|-18000000|1732201347138
678422|-18000000|1732201347178
678473|-18000000|1732201347218
678504|-18000000|1732201347258
678512|-18000000|1732201347298
678534|-18000000|1732201347338
677610|-18000000|1732201347378
678555|-18000000|1732201347418
678597|-18000000|1732201347458
678450|-18000000|1732201347498
682076|-18000000|1732201347538
678477|-18000000|1732201347578
678452|-18000000|1732201347618
678476|-18000000|1732201347658
684608|-18000000|1732201347698
678551|-18000000|1732201347738
678477|-18000000|1732201347778
678520|-18000000|1732201347818
678559|-18000000|1732201347858
678555|-18000000|1732201347898
678482|-18000000|1732201347938
678438|-18000000|1732201347978
678543|-18000000|1732201348018
683302|-18000000|1732201348058
678550|-18000000|1732201348098
678473|-18000000|1732201348138
678460|-18000000|1732201348178
674881|-18000000|1732201348218
678548|-18000000|1732201348258
678489|-18000000|1732201348298
678472|-18000000|1732201348338
684409|-18000000|1732201348378
678536|-18000000|1732201348418
678432|-18000000|1732201348458
678589|-18000000|1732201348498
678481|-18000000|1732201348538
678540|-18000000|1732201348578
678557|-18000000|1732201348618
678500|-18000000|1732201348658
678514|-18000000|1732201348698
672658|-18000000|1732201348738
678564|-18000000|1732201348778
678492|-18000000|1732201348818
678480|-18000000|1732201348858
684192|-18000000|1732201348898
678535|-18000000|1732201348938
678532|-18000000|1732201348978
678537|-18000000|1732201349018
682550|-18000000|1732201349058
678492|-18000000|1732201349098
678510|-18000000|1732201349138
678508|-18000000|1732201349178
678526|-18000000|1732201349218
678510|-18000000|1732201349258
678483|-18000000|1732201349298
678497|-18000000|1732201349338
678495|-18000000|1732201349378
674151|-18000000|1732201349418
678557|-18000000|1732201349458
678470|-18000000|1732201349498
684519|-18000000|1732201349538
678458|-18000000|1732201349578
678495|-18000000|1732201349618
678446|-18000000|1732201349658
672982|-18000000|1732201349698
678526|-18000000|1732201349738
678507|-18000000|1732201349778
678519|-18000000|1732201349818
678506|-18000000|1732201349858
678509|-18000000|1732201349898
678518|-18000000|1732201349938
678527|-18000000|1732201349978
678480|-18000000|1732201350018
684030|-18000000|1732201350058
678512|-18000000|1732201350098
678593|-18000000|1732201350138
678511|-18000000|1732201350178
683897|-18000000|1732201350218
678517|-18000000|1732201350258
678509|-18000000|1732201350298
678503|-18000000|1732201350338
672595|-18000000|1732201350378
678520|-18000000|1732201350418
678457|-18000000|1732201350458
678508|-18000000|1732201350498
678470|-18000000|1732201350538
678419|-18000000|1732201350578
678477|-18000000|1732201350618
678571|-18000000|1732201350658
678372|-18000000|1732201350698
673377|-18000000|1732201350738
678460|-18000000|1732201350778
678506|-18000000|1732201350818
678426|-18000000|1732201350858
674152|-18000000|1732201350898
678519|-18000000|1732201350938
678574|-18000000|1732201350978
678581|-18000000|1732201351018
678329|-18000000|1732201351058
678559|-18000000|1732201351098
678466|-18000000|1732201351138
678417|-18000000|1732201351178
678496|-18000000|1732201351218
678588|-18000000|1732201351258
678558|-18000000|1732201351298
678531|-18000000|1732201351338
678545|-18000000|1732201351378
674320|-18000000|1732201351418
678422|-18000000|1732201351458
678477|-18000000|1732201351498
678536|-18000000|1732201351538
678835|-18000000|1732201351578
678506|-18000000|1732201351618
678458|-18000000|1732201351658
678477|-18000000|1732201351698
681276|-18000000|1732201351738
678519|-18000000|1732201351778
678411|-18000000|1732201351818
678433|-18000000|1732201351858
678497|-18000000|1732201351898
678498|-18000000|1732201351938
678523|-18000000|1732201351978
678512|-18000000|1732201352018
678540|-18000000|1732201352058
672708|-18000000|1732201352098
678467|-18000000|1732201352138
678499|-18000000|1732201352178
678508|-18000000|1732201352218
684497|-18000000|1732201352258
678412|-18000000|1732201352298
678527|-18000000|1732201352338
678515|-18000000|1732201352378
684562|-18000000|1732201352418
678535|-18000000|1732201352458
678502|-18000000|1732201352498
678498|-18000000|1732201352538
678522|-18000000|1732201352578
678454|-18000000|1732201352618
678443|-18000000|1732201352658
678545|-18000000|1732201352698
678499|-18000000|1732201352738
673643|-18000000|1732201352778
678529|-18000000|1732201352818
678547|-18000000|1732201352858
678524|-18000000|1732201352898
682822|-18000000|1732201352938
678564|-18000000|1732201352978
678374|-18000000|1732201353018
678427|-18000000|1732201353058
682750|-18000000|1732201353098
678555|-18000000|1732201353138
678487|-18000000|1732201353178
678597|-18000000|1732201353218
678556|-18000000|1732201353258
678551|-18000000|1732201353298
678501|-18000000|1732201353338
678548|-18000000|1732201353378
678595|-18000000|1732201353418
684493|-18000000|1732201353458
678454|-18000000|1732201353498
678444|-18000000|1732201353538
678497|-18000000|1732201353578
684212|-18000000|1732201353618
678492|-18000000|1732201353658
678402|-18000000|1732201353698
678457|-18000000|1732201353738
682481|-18000000|1732201353778
678545|-18000000|1732201353818
678523|-18000000|1732201353858
678388|-18000000|1732201353898
678533|-18000000|1732201353938
678576|-18000000|1732201353978
678583|-18000000|1732201354018
678451|-18000000|1732201354058
678570|-18000000|1732201354098
678418|-18000000|1732201354138
678370|-18000000|1732201354178
678577|-18000000|1732201354218
678604|-18000000|1732201354258
672480|-18000000|1732201354298
678506|-18000000|1732201354338
678542|-18000000|1732201354378
678494|-18000000|1732201354418
673032|-18000000|1732201354458
678507|-18000000|1732201354498
678454|-18000000|1732201354538
678461|-18000000|1732201354578
678503|-18000000|1732201354618
678432|-18000000|1732201354658
678488|-18000000|1732201354698
678570|-18000000|1732201354738
678448|-18000000|1732201354778
684435|-18000000|1732201354818
678521|-18000000|1732201354858
678437|-18000000|1732201354898
678494|-18000000|1732201354938
684602|-18000000|1732201354978
678447|-18000000|1732201355018
678364|-18000000|1732201355058
678427|-18000000|1732201355098
678609|-18000000|1732201355138
678354|-18000000|1732201355178
678444|-18000000|1732201355218
678486|-18000000|1732201355258
678459|-18000000|1732201355298
678519|-18000000|1732201355338
678526|-18000000|1732201355378
678533|-18000000|1732201355418
678565|-18000000|1732201355458
678413|-18000000|1732201355498
678530|-18000000|1732201355538
678459|-18000000|1732201355578
673159|-18000000|1732201355618
678494|-18000000|1732201355658
678494|-18000000|1732201355698
678461|-18000000|1732201355738
