WEAR_PPG_GREEN
ppg|timeOffset|timestamp
755416|-18000000|1732075200014
755383|-18000000|1732075200054
755380|-18000000|1732075200094
755347|-18000000|1732075200134
755341|-18000000|1732075200174
755348|-18000000|1732075200214
755439|-18000000|1732075200254
755406|-18000000|1732075200294
752583|-18000000|1732075200334
755438|-18000000|1732075200374
755350|-18000000|1732075200414
755427|-18000000|1732075200454
751173|-18000000|1732075200494
755397|-18000000|1732075200534
755456|-18000000|1732075200574
755376|-18000000|1732075200614
749374|-18000000|1732075200654
755431|-18000000|1732075200694
755376|-18000000|1732075200734
755392|-18000000|1732075200774
755479|-18000000|1732075200814
755391|-18000000|1732075200854
755416|-18000000|1732075200894
755306|-18000000|1732075200934
755449|-18000000|1732075200974
749304|-18000000|1732075201014
755407|-18000000|1732075201054
755297|-18000000|1732075201094
755321|-18000000|1732075201134
749956|-18000000|1732075201174
755374|-18000000|1732075201214
755376|-18000000|1732075201254
755453|-18000000|1732075201294
752753|-18000000|1732075201334
755373|-18000000|1732075201374
755370|-18000000|1732075201414
755315|-18000000|1732075201454
755393|-18000000|1732075201494
755461|-18000000|1732075201534
755345|-18000000|1732075201574
755424|-18000000|1732075201614
755440|-18000000|1732075201654
760435|-18000000|1732075201694
755388|-18000000|1732075201734
755341|-18000000|1732075201774
755382|-18000000|1732075201814
761124|-18000000|1732075201854
755392|-18000000|1732075201894
755331|-18000000|1732075201934
755394|-18000000|1732075201974
749397|-18000000|1732075202014
755398|-18000000|1732075202054
755245|-18000000|1732075202094
755320|-18000000|1732075202134
755390|-18000000|1732075202174
755383|-18000000|1732075202214
755406|-18000000|1732075202254
755431|-18000000|1732075202294
755328|-18000000|1732075202334
754215|-18000000|1732075202374
755377|-18000000|1732075202414
755425|-18000000|1732075202454
755339|-18000000|1732075202494
761104|-18000000|1732075202534
755423|-18000000|1732075202574
755323|-18000000|1732075202614
755467|-18000000|1732075202654
749718|-18000000|1732075202694
755431|-18000000|1732075202734
755324|-18000000|1732075202774
755381|-18000000|1732075202814
755357|-18000000|1732075202854
755395|-18000000|1732075202894
755409|-18000000|1732075202934
755433|-18000000|1732075202974
755436|-18000000|1732075203014
760603|-18000000|1732075203054
755415|-18000000|1732075203094
755391|-18000000|1732075203134
755317|-18000000|1732075203174
750348|-18000000|1732075203214
755393|-18000000|1732075203254
755380|-18000000|1732075203294
755442|-18000000|1732075203334
749511|-18000000|1732075203374
755407|-18000000|1732075203414
755390|-18000000|1732075203454
755256|-18000000|1732075203494
755274|-18000000|1732075203534
755304|-18000000|1732075203574
755232|-18000000|1732075203614
755511|-18000000|1732075203655
755414|-18000000|1732075203696
752566|-18000000|1732075203737
755348|-18000000|1732075203778
755374|-18000000|1732075203819
755372|-18000000|1732075203860
757909|-18000000|1732075203901
755376|-18000000|1732075203942
755359|-18000000|1732075203983
755423|-18000000|1732075204024
752312|-18000000|1732075204063
755438|-18000000|1732075204102
755351|-18000000|1732075204142
755427|-18000000|1732075204182
755400|-18000000|1732075204222
755463|-18000000|1732075204262
755440|-18000000|1732075204302
755341|-18000000|1732075204342
755365|-18000000|1732075204382
761071|-18000000|1732075204422
755331|-18000000|1732075204462
755421|-18000000|1732075204502
755397|-18000000|1732075204542
753100|-18000000|1732075204582
755427|-18000000|1732075204622
755329|-18000000|1732075204662
755336|-18000000|1732075204702
749671|-18000000|1732075204742
755465|-18000000|1732075204782
755332|-18000000|1732075204822
755371|-18000000|1732075204862
755349|-18000000|1732075204902
755377|-18000000|1732075204942
755418|-18000000|1732075204982
755405|-18000000|1732075205022
755344|-18000000|1732075205062
751033|-18000000|1732075205102
755382|-18000000|1732075205142
755332|-18000000|1732075205182
755307|-18000000|1732075205222
755134|-18000000|1732075205262
755440|-18000000|1732075205302
755331|-18000000|1732075205342
760864|-18000000|1732075205382
755508|-18000000|1732075205422
755401|-18000000|1732075205462
755467|-18000000|1732075205502
755438|-18000000|1732075205542
755386|-18000000|1732075205582
755363|-18000000|1732075205622
755346|-18000000|1732075205662
755419|-18000000|1732075205702
757045|-18000000|1732075205742
755459|-18000000|1732075205782
755356|-18000000|1732075205822
755289|-18000000|1732075205862
755924|-18000000|1732075205902
755397|-18000000|1732075205942
755402|-18000000|1732075205982
755391|-18000000|1732075206022
752098|-18000000|1732075206062
755344|-18000000|1732075206102
755397|-18000000|1732075206142
755343|-18000000|1732075206182
753896|-18000000|1732075206222
755412|-18000000|1732075206262
755298|-18000000|1732075206302
755326|-18000000|1732075206342
755238|-18000000|1732075206382
759285|-18000000|1732075206422
755270|-18000000|1732075206462
755379|-18000000|1732075206502
755407|-18000000|1732075206542
761225|-18000000|1732075206582
755392|-18000000|1732075206622
755387|-18000000|1732075206662
755389|-18000000|1732075206702
749335|-18000000|1732075206742
755350|-18000000|1732075206782
755317|-18000000|1732075206822
755434|-18000000|1732075206862
752053|-18000000|1732075206902
755415|-18000000|1732075206942
755417|-18000000|1732075206982
755360|-18000000|1732075207022
755348|-18000000|1732075207062
752427|-18000000|1732075207102
755378|-18000000|1732075207142
755411|-18000000|1732075207182
755363|-18000000|1732075207222
760444|-18000000|1732075207262
755338|-18000000|1732075207302
755332|-18000000|1732075207342
755414|-18000000|1732075207382
761319|-18000000|1732075207422
755348|-18000000|1732075207462
755426|-18000000|1732075207502
755346|-18000000|1732075207542
758013|-18000000|1732075207582
755376|-18000000|1732075207622
755283|-18000000|1732075207662
755284|-18000000|1732075207702
755420|-18000000|1732075207742
749419|-18000000|1732075207782
755372|-18000000|1732075207822
755427|-18000000|1732075207862
755280|-18000000|1732075207902
752306|-18000000|1732075207942
755389|-18000000|1732075207982
755377|-18000000|1732075208022
755337|-18000000|1732075208062
760098|-18000000|1732075208102
755269|-18000000|1732075208142
755325|-18000000|1732075208182
755354|-18000000|1732075208222
752685|-18000000|1732075208262
755392|-18000000|1732075208302
755350|-18000000|1732075208342
755426|-18000000|1732075208382
755297|-18000000|1732075208422
761749|-18000000|1732075208462
755398|-18000000|1732075208502
755459|-18000000|1732075208542
755356|-18000000|1732075208582
753011|-18000000|1732075208622
755322|-18000000|1732075208662
755406|-18000000|1732075208702
755363|-18000000|1732075208742
758133|-18000000|1732075208782
755308|-18000000|1732075208822
755342|-18000000|1732075208862
755373|-18000000|1732075208902
750995|-18000000|1732075208942
755351|-18000000|1732075208982
755284|-18000000|1732075209022
755385|-18000000|1732075209062
755360|-18000000|1732075209102
757173|-18000000|1732075209142
755326|-18000000|1732075209182
755437|-18000000|1732075209222
755459|-18000000|1732075209262
749786|-18000000|1732075209302
755372|-18000000|1732075209342
755356|-18000000|1732075209382
755450|-18000000|1732075209422
758369|-18000000|1732075209462
755425|-18000000|1732075209502
755296|-18000000|1732075209542
755409|-18000000|1732075209582
749970|-18000000|1732075209622
755364|-18000000|1732075209662
755340|-18000000|1732075209702
755422|-18000000|1732075209742
755495|-18000000|1732075209782
755345|-18000000|1732075209822
755324|-18000000|1732075209862
755393|-18000000|1732075209902
755422|-18000000|1732075209942
755214|-18000000|1732075209982
755390|-18000000|1732075210022
755385|-18000000|1732075210062
755339|-18000000|1732075210102
760820|-18000000|1732075210142
755338|-18000000|1732075210182
755373|-18000000|1732075210222
755321|-18000000|1732075210262
760092|-18000000|1732075210302
755361|-18000000|1732075210342
755465|-18000000|1732075210382
755467|-18000000|1732075210422
755311|-18000000|1732075210462
755283|-18000000|1732075210502
755478|-18000000|1732075210542
755313|-18000000|1732075210582
755452|-18000000|1732075210622
761291|-18000000|1732075210662
755300|-18000000|1732075210702
755306|-18000000|1732075210742
755353|-18000000|1732075210782
761130|-18000000|1732075210822
755380|-18000000|1732075210862
755341|-18000000|1732075210902
750611|-18000000|1732075210942
755417|-18000000|1732075210982
755282|-18000000|1732075211022
755271|-18000000|1732075211062
755281|-18000000|1732075211102
755405|-18000000|1732075211142
755325|-18000000|1732075211182
755379|-18000000|1732075211222
755316|-18000000|1732075211262
761760|-18000000|1732075211302
755368|-18000000|1732075211342
755458|-18000000|1732075211382
755446|-18000000|1732075211422
761315|-18000000|1732075211462
755460|-18000000|1732075211502
755277|-18000000|1732075211542
755364|-18000000|1732075211582
749415|-18000000|1732075211622
755345|-18000000|1732075211662
755419|-18000000|1732075211702
755342|-18000000|1732075211742
755308|-18000000|1732075211782
755395|-18000000|1732075211822
755338|-18000000|1732075211862
755345|-18000000|1732075211902
755468|-18000000|1732075211942
759603|-18000000|1732075211982
755359|-18000000|1732075212022
755493|-18000000|1732075212062
755355|-18000000|1732075212102
749752|-18000000|1732075212142
755286|-18000000|1732075212182
755357|-18000000|1732075212222
755324|-18000000|1732075212262
761203|-18000000|1732075212302
755288|-18000000|1732075212342
755309|-18000000|1732075212382
755354|-18000000|1732075212422
755376|-18000000|1732075212462
755369|-18000000|1732075212502
755393|-18000000|1732075212542
755377|-18000000|1732075212582
755327|-18000000|1732075212622
749834|-18000000|1732075212662
755306|-18000000|1732075212702
755360|-18000000|1732075212742
755385|-18000000|1732075212782
749582|-18000000|1732075212822
755379|-18000000|1732075212862
755403|-18000000|1732075212902
755352|-18000000|1732075212942
754342|-18000000|1732075212982
755330|-18000000|1732075213022
755353|-18000000|1732075213062
755384|-18000000|1732075213102
755293|-18000000|1732075213142
755399|-18000000|1732075213182
755376|-18000000|1732075213222
755400|-18000000|1732075213262
755403|-18000000|1732075213302
748888|-18000000|1732075213342
755358|-18000000|1732075213382
755271|-18000000|1732075213422
755358|-18000000|1732075213462
757609|-18000000|1732075213502
755460|-18000000|1732075213542
755326|-18000000|1732075213582
755310|-18000000|1732075213622
753623|-18000000|1732075213662
755332|-18000000|1732075213702
755371|-18000000|1732075213742
755330|-18000000|1732075213782
755346|-18000000|1732075213822
755345|-18000000|1732075213862
755355|-18000000|1732075213902
755327|-18000000|1732075213942
755423|-18000000|1732075213982
752304|-18000000|1732075214022
755456|-18000000|1732075214062
755299|-18000000|1732075214102
755412|-18000000|1732075214142
761111|-18000000|1732075214182
755457|-18000000|1732075214222
755525|-18000000|1732075214262
755352|-18000000|1732075214302
759975|-18000000|1732075214342
755349|-18000000|1732075214382
755291|-18000000|1732075214422
755381|-18000000|1732075214462
755327|-18000000|1732075214502
755311|-18000000|1732075214542
755285|-18000000|1732075214582
755255|-18000000|1732075214622
755420|-18000000|1732075214662
760925|-18000000|1732075214702
755270|-18000000|1732075214742
755265|-18000000|1732075214782
755349|-18000000|1732075214822
758988|-18000000|1732075214862
755367|-18000000|1732075214902
755314|-18000000|1732075214942
755414|-18000000|1732075214982
750909|-18000000|1732075215022
755367|-18000000|1732075215062
755434|-18000000|1732075215102
755362|-18000000|1732075215142
755390|-18000000|1732075215182
755348|-18000000|1732075215222
755363|-18000000|1732075215262
755454|-18000000|1732075215302
755370|-18000000|1732075215342
757588|-18000000|1732075215382
755390|-18000000|1732075215422
755364|-18000000|1732075215462
755426|-18000000|1732075215502
759911|-18000000|1732075215542
755339|-18000000|1732075215582
755251|-18000000|1732075215622
755354|-18000000|1732075215662
749537|-18000000|1732075215702
755435|-18000000|1732075215742
755348|-18000000|1732075215782
755355|-18000000|1732075215822
755347|-18000000|1732075215862
755317|-18000000|1732075215902
755318|-18000000|1732075215942
755291|-18000000|1732075215982
755216|-18000000|1732075216022
749733|-18000000|1732075216061
755418|-18000000|1732075216100
755335|-18000000|1732075216139
755309|-18000000|1732075216178
754149|-18000000|1732075216217
755396|-18000000|1732075216256
755331|-18000000|1732075216296
755335|-18000000|1732075216336
758017|-18000000|1732075216376
755435|-18000000|1732075216416
755347|-18000000|1732075216456
755466|-18000000|1732075216496
755527|-18000000|1732075216536
755384|-18000000|1732075216576
755405|-18000000|1732075216616
755339|-18000000|1732075216656
749617|-18000000|1732075216696
755337|-18000000|1732075216736
755314|-18000000|1732075216776
755406|-18000000|1732075216816
749407|-18000000|1732075216856
755276|-18000000|1732075216896
755445|-18000000|1732075216936
755305|-18000000|1732075216976
756952|-18000000|1732075217016
755281|-18000000|1732075217056
755251|-18000000|1732075217096
755398|-18000000|1732075217136
755408|-18000000|1732075217176
755395|-18000000|1732075217216
755409|-18000000|1732075217256
755411|-18000000|1732075217296
755364|-18000000|1732075217336
752278|-18000000|1732075217376
755365|-18000000|1732075217416
755340|-18000000|1732075217456
755318|-18000000|1732075217496
749432|-18000000|1732075217536
755350|-18000000|1732075217576
755378|-18000000|1732075217616
755431|-18000000|1732075217656
761137|-18000000|1732075217696
755399|-18000000|1732075217736
755331|-18000000|1732075217776
755353|-18000000|1732075217816
755330|-18000000|1732075217856
755333|-18000000|1732075217896
755356|-18000000|1732075217936
755371|-18000000|1732075217976
755356|-18000000|1732075218016
750262|-18000000|1732075218056
755401|-18000000|1732075218096
755316|-18000000|1732075218136
755368|-18000000|1732075218176
750226|-18000000|1732075218216
755299|-18000000|1732075218256
755393|-18000000|1732075218296
755286|-18000000|1732075218336
761274|-18000000|1732075218376
755384|-18000000|1732075218416
755390|-18000000|1732075218456
755364|-18000000|1732075218496
755364|-18000000|1732075218536
755285|-18000000|1732075218576
755417|-18000000|1732075218616
755322|-18000000|1732075218656
755294|-18000000|1732075218696
759940|-18000000|1732075218736
755404|-18000000|1732075218776
755281|-18000000|1732075218816
755295|-18000000|1732075218856
749441|-18000000|1732075218896
755242|-18000000|1732075218936
755304|-18000000|1732075218976
755305|-18000000|1732075219016
761360|-18000000|1732075219056
755392|-18000000|1732075219096
755328|-18000000|1732075219136
755261|-18000000|1732075219176
755458|-18000000|1732075219216
755364|-18000000|1732075219256
755328|-18000000|1732075219296
755291|-18000000|1732075219336
755474|-18000000|1732075219376
757324|-18000000|1732075219416
755387|-18000000|1732075219456
755320|-18000000|1732075219496
755417|-18000000|1732075219536
754226|-18000000|1732075219576
755300|-18000000|1732075219616
755270|-18000000|1732075219656
755361|-18000000|1732075219696
749754|-18000000|1732075219736
755385|-18000000|1732075219776
755421|-18000000|1732075219816
755316|-18000000|1732075219856
755389|-18000000|1732075219896
755278|-18000000|1732075219936
755343|-18000000|1732075219976
755354|-18000000|1732075220016
755355|-18000000|1732075220056
760161|-18000000|1732075220096
755253|-18000000|1732075220136
755363|-18000000|1732075220176
755415|-18000000|1732075220216
749471|-18000000|1732075220256
755330|-18000000|1732075220296
755326|-18000000|1732075220336
755305|-18000000|1732075220376
749622|-18000000|1732075220416
755275|-18000000|1732075220456
755274|-18000000|1732075220496
755304|-18000000|1732075220536
755287|-18000000|1732075220576
755326|-18000000|1732075220616
755409|-18000000|1732075220656
755305|-18000000|1732075220696
755289|-18000000|1732075220736
757428|-18000000|1732075220776
755409|-18000000|1732075220816
755314|-18000000|1732075220856
755397|-18000000|1732075220896
760203|-18000000|1732075220936
755365|-18000000|1732075220976
755351|-18000000|1732075221016
755381|-18000000|1732075221056
758966|-18000000|1732075221096
755341|-18000000|1732075221136
755331|-18000000|1732075221176
755386|-18000000|1732075221216
755327|-18000000|1732075221256
755408|-18000000|1732075221296
755395|-18000000|1732075221336
755343|-18000000|1732075221376
755373|-18000000|1732075221416
751727|-18000000|1732075221456
755323|-18000000|1732075221496
755303|-18000000|1732075221536
755384|-18000000|1732075221576
760285|-18000000|1732075221616
755257|-18000000|1732075221656
755340|-18000000|1732075221696
755391|-18000000|1732075221736
750252|-18000000|1732075221776
755368|-18000000|1732075221816
755378|-18000000|1732075221856
755327|-18000000|1732075221896
755360|-18000000|1732075221936
755435|-18000000|1732075221976
755404|-18000000|1732075222016
755334|-18000000|1732075222056
759012|-18000000|1732075222096
755445|-18000000|1732075222136
755398|-18000000|1732075222176
755370|-18000000|1732075222216
761390|-18000000|1732075222256
755413|-18000000|1732075222296
755353|-18000000|1732075222336
755296|-18000000|1732075222376
756986|-18000000|1732075222416
755306|-18000000|1732075222456
755287|-18000000|1732075222496
755353|-18000000|1732075222536
754385|-18000000|1732075222576
755261|-18000000|1732075222616
755349|-18000000|1732075222656
755288|-18000000|1732075222696
755417|-18000000|1732075222736
755865|-18000000|1732075222776
755417|-18000000|1732075222816
755375|-18000000|1732075222856
755417|-18000000|1732075222896
756438|-18000000|1732075222936
755270|-18000000|1732075222976
755334|-18000000|1732075223016
755447|-18000000|1732075223056
750538|-18000000|1732075223096
755362|-18000000|1732075223136
755357|-18000000|1732075223176
755357|-18000000|1732075223216
758538|-18000000|1732075223256
755339|-18000000|1732075223296
755366|-18000000|1732075223336
755431|-18000000|1732075223376
755421|-18000000|1732075223416
755677|-18000000|1732075223456
755298|-18000000|1732075223496
755276|-18000000|1732075223536
755330|-18000000|1732075223576
757412|-18000000|1732075223616
755385|-18000000|1732075223656
755384|-18000000|1732075223696
755377|-18000000|1732075223736
758643|-18000000|1732075223776
755382|-18000000|1732075223816
755279|-18000000|1732075223856
755404|-18000000|1732075223896
753210|-18000000|1732075223936
755369|-18000000|1732075223976
755276|-18000000|1732075224016
755366|-18000000|1732075224056
755365|-18000000|1732075224096
761618|-18000000|1732075224136
755328|-18000000|1732075224176
755431|-18000000|1732075224216
755401|-18000000|1732075224256
749350|-18000000|1732075224296
755230|-18000000|1732075224336
755378|-18000000|1732075224376
755391|-18000000|1732075224416
760919|-18000000|1732075224456
755278|-18000000|1732075224496
755228|-18000000|1732075224536
755349|-18000000|1732075224576
758795|-18000000|1732075224616
755287|-18000000|1732075224656
755271|-18000000|1732075224696
755378|-18000000|1732075224736
755298|-18000000|1732075224776
750815|-18000000|1732075224816
755370|-18000000|1732075224856
755267|-18000000|1732075224896
755371|-18000000|1732075224936
750208|-18000000|1732075224976
755356|-18000000|1732075225016
755390|-18000000|1732075225056
755316|-18000000|1732075225096
749998|-18000000|1732075225136
755242|-18000000|1732075225176
755407|-18000000|1732075225216
755380|-18000000|1732075225256
756132|-18000000|1732075225296
755322|-18000000|1732075225336
755265|-18000000|1732075225376
755422|-18000000|1732075225416
755244|-18000000|1732075225456
759962|-18000000|1732075225496
755365|-18000000|1732075225536
755307|-18000000|1732075225576
755293|-18000000|1732075225616
750938|-18000000|1732075225656
755401|-18000000|1732075225696
755250|-18000000|1732075225736
755299|-18000000|1732075225776
761156|-18000000|1732075225816
755301|-18000000|1732075225856
755376|-18000000|1732075225896
755440|-18000000|1732075225936
750762|-18000000|1732075225976
755284|-18000000|1732075226016
755391|-18000000|1732075226056
755399|-18000000|1732075226096
755420|-18000000|1732075226136
755378|-18000000|1732075226176
755369|-18000000|1732075226216
755346|-18000000|1732075226256
755331|-18000000|1732075226296
759533|-18000000|1732075226336
755317|-18000000|1732075226376
755254|-18000000|1732075226416
755357|-18000000|1732075226456
760731|-18000000|1732075226496
755378|-18000000|1732075226536
755386|-18000000|1732075226576
755302|-18000000|1732075226616
751415|-18000000|1732075226656
755399|-18000000|1732075226696
755360|-18000000|1732075226736
755424|-18000000|1732075226776
755393|-18000000|1732075226816
755348|-18000000|1732075226856
755377|-18000000|1732075226896
755380|-18000000|1732075226936
755369|-18000000|1732075226976
751347|-18000000|1732075227016
755360|-18000000|1732075227056
755371|-18000000|1732075227096
755351|-18000000|1732075227136
749499|-18000000|1732075227176
755417|-18000000|1732075227216
755472|-18000000|1732075227256
758182|-18000000|1732075227296
755334|-18000000|1732075227336
755330|-18000000|1732075227376
755257|-18000000|1732075227416
755345|-18000000|1732075227456
755410|-18000000|1732075227496
755366|-18000000|1732075227536
755260|-18000000|1732075227576
755312|-18000000|1732075227616
759399|-18000000|1732075227656
755365|-18000000|1732075227696
755320|-18000000|1732075227736
755328|-18000000|1732075227776
749486|-18000000|1732075227816
755304|-18000000|1732075227856
755319|-18000000|1732075227896
755269|-18000000|1732075227936
758263|-18000000|1732075227976
755330|-18000000|1732075228016
755295|-18000000|1732075228055
755335|-18000000|1732075228094
755370|-18000000|1732075228134
755346|-18000000|1732075228174
755428|-18000000|1732075228214
755383|-18000000|1732075228254
755330|-18000000|1732075228294
749837|-18000000|1732075228334
755291|-18000000|1732075228374
755307|-18000000|1732075228414
755344|-18000000|1732075228454
757953|-18000000|1732075228494
755459|-18000000|1732075228534
755342|-18000000|1732075228574
755296|-18000000|1732075228614
761182|-18000000|1732075228654
755351|-18000000|1732075228694
755407|-18000000|1732075228734
755319|-18000000|1732075228774
755436|-18000000|1732075228814
755342|-18000000|1732075228854
755336|-18000000|1732075228894
755398|-18000000|1732075228934
755321|-18000000|1732075228974
749083|-18000000|1732075229014
755344|-18000000|1732075229054
755346|-18000000|1732075229094
755467|-18000000|1732075229134
761248|-18000000|1732075229174
755333|-18000000|1732075229214
755429|-18000000|1732075229254
755333|-18000000|1732075229294
759902|-18000000|1732075229334
755377|-18000000|1732075229374
755241|-18000000|1732075229414
755332|-18000000|1732075229454
755465|-18000000|1732075229494
755363|-18000000|1732075229534
755451|-18000000|1732075229574
755399|-18000000|1732075229614
755381|-18000000|1732075229654
761495|-18000000|1732075229694
755339|-18000000|1732075229734
755352|-18000000|1732075229774
755350|-18000000|1732075229814
758754|-18000000|1732075229854
755263|-18000000|1732075229894
755355|-18000000|1732075229934
755372|-18000000|1732075229974
755336|-18000000|1732075230014
755250|-18000000|1732075230054
755284|-18000000|1732075230094
755296|-18000000|1732075230134
755416|-18000000|1732075230174
755402|-18000000|1732075230214
755303|-18000000|1732075230254
755238|-18000000|1732075230294
755426|-18000000|1732075230334
751903|-18000000|1732075230374
755412|-18000000|1732075230414
755296|-18000000|1732075230454
755367|-18000000|1732075230494
751349|-18000000|1732075230534
755357|-18000000|1732075230574
755366|-18000000|1732075230614
755339|-18000000|1732075230654
750562|-18000000|1732075230694
755392|-18000000|1732075230734
755346|-18000000|1732075230774
755320|-18000000|1732075230814
755379|-18000000|1732075230854
755383|-18000000|1732075230894
755267|-18000000|1732075230934
755356|-18000000|1732075230974
755284|-18000000|1732075231014
749134|-18000000|1732075231054
755263|-18000000|1732075231094
755330|-18000000|1732075231134
755258|-18000000|1732075231174
761111|-18000000|1732075231214
755292|-18000000|1732075231254
755310|-18000000|1732075231294
755337|-18000000|1732075231334
755566|-18000000|1732075231374
755269|-18000000|1732075231414
755269|-18000000|1732075231454
755294|-18000000|1732075231494
755303|-18000000|1732075231534
755380|-18000000|1732075231574
755270|-18000000|1732075231614
755413|-18000000|1732075231654
755284|-18000000|1732075231694
759714|-18000000|1732075231734
755329|-18000000|1732075231774
755420|-18000000|1732075231814
755341|-18000000|1732075231854
753010|-18000000|1732075231894
755339|-18000000|1732075231934
755330|-18000000|1732075231974
755306|-18000000|1732075232014
749308|-18000000|1732075232054
755373|-18000000|1732075232094
755421|-18000000|1732075232134
755264|-18000000|1732075232174
755323|-18000000|1732075232214
755344|-18000000|1732075232254
755369|-18000000|1732075232294
755393|-18000000|1732075232334
755348|-18000000|1732075232374
756721|-18000000|1732075232414
755411|-18000000|1732075232454
755309|-18000000|1732075232494
755195|-18000000|1732075232534
756015|-18000000|1732075232574
755367|-18000000|1732075232614
755346|-18000000|1732075232654
755277|-18000000|1732075232694
755353|-18000000|1732075232734
755256|-18000000|1732075232774
755321|-18000000|1732075232814
755304|-18000000|1732075232854
755347|-18000000|1732075232894
755358|-18000000|1732075232934
755374|-18000000|1732075232974
755300|-18000000|1732075233014
761435|-18000000|1732075233054
755369|-18000000|1732075233094
755256|-18000000|1732075233134
755241|-18000000|1732075233174
751547|-18000000|1732075233214
755370|-18000000|1732075233254
755320|-18000000|1732075233294
755303|-18000000|1732075233334
749967|-18000000|1732075233374
755366|-18000000|1732075233414
755324|-18000000|1732075233454
755394|-18000000|1732075233494
755342|-18000000|1732075233534
755247|-18000000|1732075233574
755291|-18000000|1732075233614
755297|-18000000|1732075233654
755281|-18000000|1732075233694
749640|-18000000|1732075233734
755326|-18000000|1732075233774
755348|-18000000|1732075233814
755349|-18000000|1732075233854
754525|-18000000|1732075233894
755419|-18000000|1732075233934
755383|-18000000|1732075233974
755423|-18000000|1732075234014
749412|-18000000|1732075234054
755293|-18000000|1732075234094
755339|-18000000|1732075234134
755282|-18000000|1732075234174
755327|-18000000|1732075234214
755185|-18000000|1732075234254
755260|-18000000|1732075234294
755363|-18000000|1732075234334
755318|-18000000|1732075234374
761639|-18000000|1732075234414
755238|-18000000|1732075234454
755338|-18000000|1732075234494
755383|-18000000|1732075234534
761142|-18000000|1732075234574
755331|-18000000|1732075234614
755264|-18000000|1732075234654
755325|-18000000|1732075234694
753133|-18000000|1732075234734
755332|-18000000|1732075234774
755415|-18000000|1732075234814
755330|-18000000|1732075234854
755396|-18000000|1732075234894
755391|-18000000|1732075234934
755343|-18000000|1732075234974
755311|-18000000|1732075235014
755299|-18000000|1732075235054
749312|-18000000|1732075235094
755377|-18000000|1732075235134
755354|-18000000|1732075235174
755374|-18000000|1732075235214
761272|-18000000|1732075235254
755291|-18000000|1732075235294
755339|-18000000|1732075235334
755398|-18000000|1732075235374
755728|-18000000|1732075235414
755360|-18000000|1732075235454
755363|-18000000|1732075235494
755312|-18000000|1732075235534
755328|-18000000|1732075235574
755373|-18000000|1732075235614
755281|-18000000|1732075235654
755258|-18000000|1732075235694
755306|-18000000|1732075235734
754126|-18000000|1732075235774
755378|-18000000|1732075235814
755398|-18000000|1732075235854
755321|-18000000|1732075235894
760287|-18000000|1732075235934
755371|-18000000|1732075235974
755280|-18000000|1732075236014
755321|-18000000|1732075236054
759931|-18000000|1732075236094
755348|-18000000|1732075236134
755338|-18000000|1732075236174
755317|-18000000|1732075236214
755286|-18000000|1732075236254
755367|-18000000|1732075236294
755280|-18000000|1732075236334
755354|-18000000|1732075236374
755332|-18000000|1732075236414
759338|-18000000|1732075236454
755351|-18000000|1732075236494
755304|-18000000|1732075236534
755308|-18000000|1732075236574
761221|-18000000|1732075236614
755339|-18000000|1732075236654
755330|-18000000|1732075236694
755234|-18000000|1732075236734
749499|-18000000|1732075236774
755269|-18000000|1732075236814
755301|-18000000|1732075236854
755407|-18000000|1732075236894
755331|-18000000|1732075236934
755305|-18000000|1732075236974
755295|-18000000|1732075237014
755359|-18000000|1732075237054
755222|-18000000|1732075237094
758265|-18000000|1732075237134
755366|-18000000|1732075237174
755285|-18000000|1732075237214
755328|-18000000|1732075237254
761159|-18000000|1732075237294
755348|-18000000|1732075237334
755274|-18000000|1732075237374
755376|-18000000|1732075237414
752199|-18000000|1732075237454
755244|-18000000|1732075237494
755282|-18000000|1732075237534
755317|-18000000|1732075237574
755377|-18000000|1732075237614
755380|-18000000|1732075237654
755362|-18000000|1732075237694
755312|-18000000|1732075237734
755323|-18000000|1732075237774
758327|-18000000|1732075237814
755364|-18000000|1732075237854
755294|-18000000|1732075237894
755233|-18000000|1732075237934
761297|-18000000|1732075237974
755323|-18000000|1732075238014
755290|-18000000|1732075238054
755309|-18000000|1732075238094
754090|-18000000|1732075238134
755447|-18000000|1732075238174
755372|-18000000|1732075238214
755127|-18000000|1732075238254
755397|-18000000|1732075238294
755361|-18000000|1732075238334
755325|-18000000|1732075238374
755279|-18000000|1732075238414
761136|-18000000|1732075238454
755327|-18000000|1732075238494
755318|-18000000|1732075238534
755309|-18000000|1732075238574
749301|-18000000|1732075238614
755293|-18000000|1732075238654
755337|-18000000|1732075238694
755339|-18000000|1732075238734
760067|-18000000|1732075238774
755331|-18000000|1732075238814
755247|-18000000|1732075238854
755308|-18000000|1732075238894
752741|-18000000|1732075238934
755336|-18000000|1732075238974
755179|-18000000|1732075239014
755379|-18000000|1732075239054
755312|-18000000|1732075239094
754753|-18000000|1732075239134
755414|-18000000|1732075239174
755308|-18000000|1732075239214
755297|-18000000|1732075239254
754109|-18000000|1732075239294
755313|-18000000|1732075239334
755347|-18000000|1732075239374
755264|-18000000|1732075239414
752608|-18000000|1732075239454
755335|-18000000|1732075239494
755263|-18000000|1732075239534
755310|-18000000|1732075239574
752555|-18000000|1732075239614
755267|-18000000|1732075239654
755215|-18000000|1732075239694
755309|-18000000|1732075239734
755240|-18000000|1732075239774
759606|-18000000|1732075239814
755310|-18000000|1732075239854
755254|-18000000|1732075239894
755330|-18000000|1732075239934
753846|-18000000|1732075239974
755342|-18000000|1732075240014
755253|-18000000|1732075240994
755336|-18000000|1732075241034
750838|-18000000|1732075241074
755246|-18000000|1732075241114
755381|-18000000|1732075241154
755334|-18000000|1732075241194
755858|-18000000|1732075241235
755281|-18000000|1732075241275
755248|-18000000|1732075241315
755370|-18000000|1732075241355
755316|-18000000|1732075241395
749931|-18000000|1732075241436
755230|-18000000|1732075241476
755310|-18000000|1732075241516
755395|-18000000|1732075241556
749379|-18000000|1732075241597
755330|-18000000|1732075241637
755342|-18000000|1732075241677
755317|-18000000|1732075241717
756785|-18000000|1732075241758
755313|-18000000|1732075241798
755300|-18000000|1732075241839
755334|-18000000|1732075241878
754563|-18000000|1732075241919
755247|-18000000|1732075241959
755311|-18000000|1732075241999
755309|-18000000|1732075242040
755330|-18000000|1732075242080
760767|-18000000|1732075242120
755245|-18000000|1732075242160
755296|-18000000|1732075242200
755320|-18000000|1732075242241
756639|-18000000|1732075242281
755320|-18000000|1732075242321
755195|-18000000|1732075242361
755456|-18000000|1732075242401
754578|-18000000|1732075242442
755349|-18000000|1732075242481
755308|-18000000|1732075242522
755376|-18000000|1732075242562
750447|-18000000|1732075242602
755294|-18000000|1732075242642
755321|-18000000|1732075242682
755276|-18000000|1732075242723
755358|-18000000|1732075242763
755207|-18000000|1732075242803
755338|-18000000|1732075242843
755274|-18000000|1732075242883
755163|-18000000|1732075242923
756764|-18000000|1732075242964
755250|-18000000|1732075243004
755343|-18000000|1732075243044
755326|-18000000|1732075243084
753949|-18000000|1732075243125
755351|-18000000|1732075243165
755352|-18000000|1732075243205
755249|-18000000|1732075243246
749974|-18000000|1732075243285
755321|-18000000|1732075243326
755255|-18000000|1732075243366
755329|-18000000|1732075243406
755320|-18000000|1732075243447
755391|-18000000|1732075243487
755288|-18000000|1732075243527
755364|-18000000|1732075243567
755281|-18000000|1732075243607
760530|-18000000|1732075243648
755294|-18000000|1732075243688
755328|-18000000|1732075243728
755405|-18000000|1732075243768
750346|-18000000|1732075243809
755379|-18000000|1732075243849
755280|-18000000|1732075243889
755246|-18000000|1732075243929
758661|-18000000|1732075243970
755223|-18000000|1732075244010
755281|-18000000|1732075244051
755320|-18000000|1732075244090
755356|-18000000|1732075244131
755295|-18000000|1732075244171
755231|-18000000|1732075244211
755300|-18000000|1732075244252
755293|-18000000|1732075244292
749946|-18000000|1732075244332
755388|-18000000|1732075244372
755316|-18000000|1732075244412
755342|-18000000|1732075244453
752747|-18000000|1732075244493
755315|-18000000|1732075244533
755420|-18000000|1732075244573
755399|-18000000|1732075244614
757599|-18000000|1732075244654
755466|-18000000|1732075244694
755335|-18000000|1732075244734
755295|-18000000|1732075244775
755409|-18000000|1732075244815
755134|-18000000|1732075244856
755332|-18000000|1732075244896
755297|-18000000|1732075244936
756268|-18000000|1732075244976
755308|-18000000|1732075245016
755348|-18000000|1732075245057
755329|-18000000|1732075245096
749317|-18000000|1732075245137
755260|-18000000|1732075245177
755294|-18000000|1732075245217
755342|-18000000|1732075245257
759194|-18000000|1732075245297
755337|-18000000|1732075245337
755308|-18000000|1732075245378
755299|-18000000|1732075245418
755309|-18000000|1732075245459
755366|-18000000|1732075245499
755339|-18000000|1732075245539
755325|-18000000|1732075245579
755325|-18000000|1732075245619
749570|-18000000|1732075245660
755340|-18000000|1732075245700
755327|-18000000|1732075245740
755314|-18000000|1732075245780
752727|-18000000|1732075245820
755345|-18000000|1732075245861
755298|-18000000|1732075245901
755279|-18000000|1732075245941
749171|-18000000|1732075245981
755360|-18000000|1732075246022
755335|-18000000|1732075246062
755306|-18000000|1732075246102
755330|-18000000|1732075246142
755340|-18000000|1732075246183
755276|-18000000|1732075246223
755260|-18000000|1732075246264
755284|-18000000|1732075246303
760124|-18000000|1732075246344
755391|-18000000|1732075246384
755343|-18000000|1732075246424
755251|-18000000|1732075246465
758244|-18000000|1732075246507
755311|-18000000|1732075246545
755269|-18000000|1732075246585
755216|-18000000|1732075246626
750430|-18000000|1732075246666
755277|-18000000|1732075246706
755368|-18000000|1732075246746
755272|-18000000|1732075246787
755365|-18000000|1732075246827
755306|-18000000|1732075246868
755339|-18000000|1732075246907
755308|-18000000|1732075246948
755378|-18000000|1732075246988
753979|-18000000|1732075247028
755385|-18000000|1732075247069
755326|-18000000|1732075247109
755248|-18000000|1732075247149
751865|-18000000|1732075247189
755234|-18000000|1732075247229
755310|-18000000|1732075247270
755306|-18000000|1732075247310
761078|-18000000|1732075247350
755362|-18000000|1732075247390
755223|-18000000|1732075247431
755283|-18000000|1732075247471
755330|-18000000|1732075247511
755326|-18000000|1732075247551
755309|-18000000|1732075247592
755384|-18000000|1732075247632
755258|-18000000|1732075247672
760627|-18000000|1732075247712
755348|-18000000|1732075247752
755297|-18000000|1732075247793
755336|-18000000|1732075247833
749520|-18000000|1732075247873
755208|-18000000|1732075247913
755271|-18000000|1732075247953
755277|-18000000|1732075247993
760996|-18000000|1732075248034
755348|-18000000|1732075248074
755286|-18000000|1732075248114
755278|-18000000|1732075248154
755403|-18000000|1732075248194
755299|-18000000|1732075248235
755265|-18000000|1732075248275
755301|-18000000|1732075248315
755259|-18000000|1732075248355
756654|-18000000|1732075248395
755342|-18000000|1732075248436
755384|-18000000|1732075248476
755354|-18000000|1732075248516
750308|-18000000|1732075248556
755224|-18000000|1732075248596
755326|-18000000|1732075248636
755312|-18000000|1732075248677
749239|-18000000|1732075248717
755271|-18000000|1732075248759
755343|-18000000|1732075248799
755249|-18000000|1732075248839
755296|-18000000|1732075248880
755320|-18000000|1732075248920
755256|-18000000|1732075248960
755183|-18000000|1732075249000
755275|-18000000|1732075249040
749326|-18000000|1732075249081
755307|-18000000|1732075249121
755325|-18000000|1732075249161
755241|-18000000|1732075249201
749645|-18000000|1732075249242
755213|-18000000|1732075249282
755343|-18000000|1732075249322
755195|-18000000|1732075249362
758417|-18000000|1732075249403
755310|-18000000|1732075249443
755249|-18000000|1732075249483
755300|-18000000|1732075249523
755299|-18000000|1732075249564
755324|-18000000|1732075249604
755283|-18000000|1732075249644
755342|-18000000|1732075249685
755226|-18000000|1732075249725
750033|-18000000|1732075249765
755322|-18000000|1732075249805
755201|-18000000|1732075249845
755304|-18000000|1732075249886
755908|-18000000|1732075249926
755285|-18000000|1732075249966
755341|-18000000|1732075250006
755286|-18000000|1732075250047
759045|-18000000|1732075250088
755275|-18000000|1732075250127
755247|-18000000|1732075250168
755353|-18000000|1732075250208
755260|-18000000|1732075250248
755230|-18000000|1732075250288
755304|-18000000|1732075250328
755266|-18000000|1732075250368
754129|-18000000|1732075250408
755276|-18000000|1732075250449
755298|-18000000|1732075250489
755342|-18000000|1732075250529
760869|-18000000|1732075250569
755314|-18000000|1732075250609
755317|-18000000|1732075250649
755280|-18000000|1732075250690
753436|-18000000|1732075250730
755327|-18000000|1732075250770
755279|-18000000|1732075250810
755278|-18000000|1732075250850
755356|-18000000|1732075250891
755321|-18000000|1732075250931
755319|-18000000|1732075250971
755242|-18000000|1732075251011
755311|-18000000|1732075251051
750772|-18000000|1732075251092
755288|-18000000|1732075251132
755348|-18000000|1732075251172
755310|-18000000|1732075251212
751576|-18000000|1732075251252
755253|-18000000|1732075251293
755490|-18000000|1732075251333
755269|-18000000|1732075251373
757085|-18000000|1732075251413
755296|-18000000|1732075251454
755283|-18000000|1732075251494
755327|-18000000|1732075251534
755288|-18000000|1732075251574
755314|-18000000|1732075251615
755356|-18000000|1732075251655
755301|-18000000|1732075251695
755309|-18000000|1732075251735
759856|-18000000|1732075251776
755394|-18000000|1732075251816
755227|-18000000|1732075251856
755308|-18000000|1732075251897
757367|-18000000|1732075251937
755291|-18000000|1732075251977
755289|-18000000|1732075252017
755286|-18000000|1732075252057
761191|-18000000|1732075252098
755267|-18000000|1732075252139
755315|-18000000|1732075252179
755323|-18000000|1732075252220
755370|-18000000|1732075252260
755243|-18000000|1732075252300
755225|-18000000|1732075252340
755275|-18000000|1732075252381
755294|-18000000|1732075252421
761305|-18000000|1732075252461
755318|-18000000|1732075252502
755355|-18000000|1732075252542
755404|-18000000|1732075252582
761245|-18000000|1732075252622
755295|-18000000|1732075252662
755289|-18000000|1732075252703
755316|-18000000|1732075252743
750191|-18000000|1732075252783
755251|-18000000|1732075252823
755387|-18000000|1732075252864
755290|-18000000|1732075252904
755313|-18000000|1732075252944
755204|-18000000|1732075252984
755188|-18000000|1732075253024
755359|-18000000|1732075253063
755201|-18000000|1732075253102
760164|-18000000|1732075253142
755279|-18000000|1732075253182
755329|-18000000|1732075253222
755312|-18000000|1732075253262
756444|-18000000|1732075253302
755193|-18000000|1732075253342
755342|-18000000|1732075253382
755287|-18000000|1732075253422
749532|-18000000|1732075253462
755296|-18000000|1732075253502
755186|-18000000|1732075253542
755374|-18000000|1732075253582
755171|-18000000|1732075253622
755311|-18000000|1732075253662
755313|-18000000|1732075253702
755252|-18000000|1732075253742
755276|-18000000|1732075253782
756424|-18000000|1732075253822
755274|-18000000|1732075253862
755324|-18000000|1732075253902
755300|-18000000|1732075253942
752764|-18000000|1732075253982
755294|-18000000|1732075254022
755250|-18000000|1732075254062
755298|-18000000|1732075254102
755614|-18000000|1732075254142
755288|-18000000|1732075254182
755237|-18000000|1732075254222
755281|-18000000|1732075254262
755293|-18000000|1732075254302
755287|-18000000|1732075254342
755326|-18000000|1732075254382
755319|-18000000|1732075254422
755252|-18000000|1732075254462
750487|-18000000|1732075254502
755267|-18000000|1732075254542
755234|-18000000|1732075254582
755225|-18000000|1732075254622
756245|-18000000|1732075254662
755298|-18000000|1732075254702
755244|-18000000|1732075254742
755285|-18000000|1732075254782
761044|-18000000|1732075254822
755296|-18000000|1732075254862
755246|-18000000|1732075254902
755303|-18000000|1732075254942
755309|-18000000|1732075254982
755321|-18000000|1732075255022
755355|-18000000|1732075255062
755225|-18000000|1732075255102
755272|-18000000|1732075255142
748964|-18000000|1732075255182
755294|-18000000|1732075255222
755273|-18000000|1732075255262
755284|-18000000|1732075255302
759981|-18000000|1732075255342
755266|-18000000|1732075255382
755286|-18000000|1732075255422
755336|-18000000|1732075255462
755857|-18000000|1732075255502
755271|-18000000|1732075255542
755260|-18000000|1732075255582
755218|-18000000|1732075255622
754907|-18000000|1732075255662
755288|-18000000|1732075255702
755221|-18000000|1732075255742
755272|-18000000|1732075255782
754620|-18000000|1732075255822
755336|-18000000|1732075255862
755258|-18000000|1732075255902
755356|-18000000|1732075255942
750839|-18000000|1732075255982
755314|-18000000|1732075256022
755350|-18000000|1732075256062
755328|-18000000|1732075256102
761205|-18000000|1732075256142
755320|-18000000|1732075256182
755351|-18000000|1732075256222
755332|-18000000|1732075256262
754852|-18000000|1732075256302
755211|-18000000|1732075256342
755332|-18000000|1732075256382
755358|-18000000|1732075256422
755297|-18000000|1732075256462
749617|-18000000|1732075256502
755241|-18000000|1732075256542
755246|-18000000|1732075256582
755321|-18000000|1732075256622
749080|-18000000|1732075256662
755311|-18000000|1732075256702
755304|-18000000|1732075256742
755313|-18000000|1732075256782
749732|-18000000|1732075256822
755219|-18000000|1732075256862
755326|-18000000|1732075256902
755202|-18000000|1732075256942
754424|-18000000|1732075256982
755323|-18000000|1732075257022
755230|-18000000|1732075257062
755356|-18000000|1732075257102
755333|-18000000|1732075257142
754237|-18000000|1732075257182
755309|-18000000|1732075257222
755315|-18000000|1732075257262
755307|-18000000|1732075257302
755727|-18000000|1732075257342
755217|-18000000|1732075257382
755257|-18000000|1732075257422
755323|-18000000|1732075257462
755272|-18000000|1732075257502
755287|-18000000|1732075257542
755308|-18000000|1732075257582
755131|-18000000|1732075257622
756764|-18000000|1732075257662
755340|-18000000|1732075257702
755330|-18000000|1732075257742
755313|-18000000|1732075257782
755288|-18000000|1732075257822
750748|-18000000|1732075257862
755293|-18000000|1732075257902
755342|-18000000|1732075257942
755270|-18000000|1732075257982
749331|-18000000|1732075258022
755265|-18000000|1732075258062
755294|-18000000|1732075258102
755215|-18000000|1732075258142
759633|-18000000|1732075258182
755343|-18000000|1732075258222
755319|-18000000|1732075258262
755314|-18000000|1732075258302
754541|-18000000|1732075258342
755369|-18000000|1732075258382
755187|-18000000|1732075258422
755221|-18000000|1732075258462
755202|-18000000|1732075258502
755415|-18000000|1732075258542
755312|-18000000|1732075258582
755359|-18000000|1732075258622
755257|-18000000|1732075258662
761060|-18000000|1732075258702
755308|-18000000|1732075258742
755242|-18000000|1732075258782
755220|-18000000|1732075258822
759910|-18000000|1732075258862
755292|-18000000|1732075258902
755317|-18000000|1732075258942
755408|-18000000|1732075258982
760547|-18000000|1732075259022
755308|-18000000|1732075259062
755308|-18000000|1732075259102
755307|-18000000|1732075259142
755263|-18000000|1732075259182
754547|-18000000|1732075259222
755324|-18000000|1732075259262
755254|-18000000|1732075259302
755276|-18000000|1732075259342
749325|-18000000|1732075259382
755209|-18000000|1732075259422
755267|-18000000|1732075259462
755393|-18000000|1732075259502
761268|-18000000|1732075259542
755230|-18000000|1732075259582
755287|-18000000|1732075259622
755389|-18000000|1732075259662
758986|-18000000|1732075259702
755297|-18000000|1732075259742
755256|-18000000|1732075259782
755301|-18000000|1732075259822
755297|-18000000|1732075259862
755314|-18000000|1732075259902
755258|-18000000|1732075259942
755237|-18000000|1732075259982
755290|-18000000|1732075260022
757140|-18000000|1732075260062
755273|-18000000|1732075260102
755263|-18000000|1732075260142
755277|-18000000|1732075260182
753460|-18000000|1732075260222
755353|-18000000|1732075260262
755248|-18000000|1732075260302
755304|-18000000|1732075260342
750206|-18000000|1732075260382
755312|-18000000|1732075260422
755260|-18000000|1732075260462
755309|-18000000|1732075260502
755251|-18000000|1732075260542
755283|-18000000|1732075260582
755366|-18000000|1732075260622
755298|-18000000|1732075260662
755335|-18000000|1732075260702
761489|-18000000|1732075260742
755291|-18000000|1732075260782
755358|-18000000|1732075260822
755330|-18000000|1732075260862
752218|-18000000|1732075260902
755346|-18000000|1732075260942
755325|-18000000|1732075260982
755262|-18000000|1732075261022
761119|-18000000|1732075261062
755330|-18000000|1732075261102
755290|-18000000|1732075261142
755341|-18000000|1732075261182
755132|-18000000|1732075261222
755258|-18000000|1732075261262
755355|-18000000|1732075261302
755320|-18000000|1732075261342
749204|-18000000|1732075261382
755235|-18000000|1732075261422
755243|-18000000|1732075261462
755283|-18000000|1732075261502
754258|-18000000|1732075261542
755281|-18000000|1732075261582
755231|-18000000|1732075261622
755308|-18000000|1732075261662
750470|-18000000|1732075261702
755317|-18000000|1732075261742
755322|-18000000|1732075261782
755329|-18000000|1732075261822
755259|-18000000|1732075261862
755223|-18000000|1732075261902
755406|-18000000|1732075261942
755150|-18000000|1732075261982
755276|-18000000|1732075262022
760391|-18000000|1732075262062
755218|-18000000|1732075262102
755288|-18000000|1732075262142
755235|-18000000|1732075262182
761117|-18000000|1732075262222
755395|-18000000|1732075262262
755329|-18000000|1732075262302
755293|-18000000|1732075262342
750606|-18000000|1732075262382
755310|-18000000|1732075262422
755308|-18000000|1732075262462
755140|-18000000|1732075262502
755283|-18000000|1732075262542
755317|-18000000|1732075262582
755336|-18000000|1732075262622
755280|-18000000|1732075262662
755275|-18000000|1732075262702
749347|-18000000|1732075262742
755304|-18000000|1732075262782
755360|-18000000|1732075262822
755284|-18000000|1732075262862
755124|-18000000|1732075262902
755295|-18000000|1732075262942
755305|-18000000|1732075262982
755353|-18000000|1732075263022
753114|-18000000|1732075263062
755250|-18000000|1732075263102
755285|-18000000|1732075263142
755276|-18000000|1732075263182
755227|-18000000|1732075263222
755337|-18000000|1732075263262
755302|-18000000|1732075263302
755339|-18000000|1732075263342
755343|-18000000|1732075263382
749561|-18000000|1732075263422
755266|-18000000|1732075263462
755268|-18000000|1732075263502
755285|-18000000|1732075263542
754640|-18000000|1732075263582
755230|-18000000|1732075263622
755245|-18000000|1732075263662
755304|-18000000|1732075263702
752796|-18000000|1732075263742
755277|-18000000|1732075263782
755295|-18000000|1732075263822
755333|-18000000|1732075263862
755275|-18000000|1732075263902
755292|-18000000|1732075263942
755203|-18000000|1732075263982
755311|-18000000|1732075264022
755253|-18000000|1732075264062
749297|-18000000|1732075264102
755312|-18000000|1732075264142
755358|-18000000|1732075264182
755293|-18000000|1732075264222
759174|-18000000|1732075264262
755395|-18000000|1732075264302
755316|-18000000|1732075264342
755219|-18000000|1732075264382
759428|-18000000|1732075264422
755239|-18000000|1732075264462
755375|-18000000|1732075264502
755271|-18000000|1732075264542
755310|-18000000|1732075264582
755319|-18000000|1732075264622
755300|-18000000|1732075264662
755319|-18000000|1732075264702
755320|-18000000|1732075264742
758609|-18000000|1732075264782
755358|-18000000|1732075264822
755343|-18000000|1732075264862
755335|-18000000|1732075264902
754888|-18000000|1732075264942
755259|-18000000|1732075264982
755291|-18000000|1732075265022
755272|-18000000|1732075265062
750165|-18000000|1732075265102
755324|-18000000|1732075265142
755307|-18000000|1732075265182
755295|-18000000|1732075265222
755327|-18000000|1732075265262
755195|-18000000|1732075265302
755220|-18000000|1732075265342
755283|-18000000|1732075265382
755137|-18000000|1732075265422
760579|-18000000|1732075265462
755273|-18000000|1732075265502
755331|-18000000|1732075265542
755262|-18000000|1732075265582
754224|-18000000|1732075265622
755326|-18000000|1732075265662
755227|-18000000|1732075265702
755320|-18000000|1732075265742
749321|-18000000|1732075265782
755312|-18000000|1732075265822
755224|-18000000|1732075265862
755298|-18000000|1732075265902
755294|-18000000|1732075265942
755322|-18000000|1732075265982
755286|-18000000|1732075266022
755279|-18000000|1732075266062
755280|-18000000|1732075266102
760478|-18000000|1732075266142
755297|-18000000|1732075266182
755200|-18000000|1732075266222
755245|-18000000|1732075266262
752646|-18000000|1732075266302
755299|-18000000|1732075266342
755283|-18000000|1732075266382
755262|-18000000|1732075266422
759041|-18000000|1732075266462
755336|-18000000|1732075266502
755286|-18000000|1732075266542
755294|-18000000|1732075266582
755251|-18000000|1732075266622
755210|-18000000|1732075266662
755320|-18000000|1732075266702
755192|-18000000|1732075266742
753536|-18000000|1732075266782
755338|-18000000|1732075266822
755240|-18000000|1732075266862
755150|-18000000|1732075266902
756395|-18000000|1732075266942
755257|-18000000|1732075266982
755339|-18000000|1732075267022
755302|-18000000|1732075267062
752704|-18000000|1732075267102
755297|-18000000|1732075267142
755239|-18000000|1732075267182
755314|-18000000|1732075267222
755308|-18000000|1732075267262
755257|-18000000|1732075267302
755280|-18000000|1732075267342
755200|-18000000|1732075267382
755204|-18000000|1732075267422
749295|-18000000|1732075267462
755272|-18000000|1732075267502
755268|-18000000|1732075267542
755297|-18000000|1732075267582
749416|-18000000|1732075267622
755294|-18000000|1732075267662
755282|-18000000|1732075267702
755264|-18000000|1732075267742
756223|-18000000|1732075267782
755287|-18000000|1732075267822
755288|-18000000|1732075267862
755331|-18000000|1732075267902
755277|-18000000|1732075267942
755212|-18000000|1732075267982
755281|-18000000|1732075268022
755333|-18000000|1732075268062
755275|-18000000|1732075268102
748996|-18000000|1732075268142
755304|-18000000|1732075268182
755281|-18000000|1732075268222
755313|-18000000|1732075268262
750942|-18000000|1732075268302
755351|-18000000|1732075268342
755290|-18000000|1732075268382
755354|-18000000|1732075268422
760941|-18000000|1732075268462
755207|-18000000|1732075268502
755250|-18000000|1732075268542
755212|-18000000|1732075268582
755315|-18000000|1732075268622
755335|-18000000|1732075268662
755201|-18000000|1732075268702
755300|-18000000|1732075268742
755352|-18000000|1732075268782
755614|-18000000|1732075268822
755332|-18000000|1732075268862
755260|-18000000|1732075268902
755259|-18000000|1732075268942
757676|-18000000|1732075268982
755275|-18000000|1732075269022
755320|-18000000|1732075269062
755268|-18000000|1732075269102
760692|-18000000|1732075269142
755346|-18000000|1732075269182
755332|-18000000|1732075269222
755280|-18000000|1732075269262
755313|-18000000|1732075269302
755300|-18000000|1732075269342
755337|-18000000|1732075269382
755208|-18000000|1732075269422
755394|-18000000|1732075269462
757576|-18000000|1732075269502
755275|-18000000|1732075269542
755315|-18000000|1732075269582
755336|-18000000|1732075269622
758498|-18000000|1732075269662
755357|-18000000|1732075269702
755264|-18000000|1732075269742
755235|-18000000|1732075269782
749468|-18000000|1732075269822
755286|-18000000|1732075269862
755275|-18000000|1732075269902
755295|-18000000|1732075269942
755211|-18000000|1732075269982
755274|-18000000|1732075270022
755238|-18000000|1732075270062
755357|-18000000|1732075270102
755199|-18000000|1732075270142
760580|-18000000|1732075270182
755230|-18000000|1732075270222
755254|-18000000|1732075270262
755353|-18000000|1732075270302
749660|-18000000|1732075270342
755212|-18000000|1732075270382
755202|-18000000|1732075270422
755193|-18000000|1732075270462
751041|-18000000|1732075270502
755251|-18000000|1732075270542
755296|-18000000|1732075270582
755305|-18000000|1732075270622
755177|-18000000|1732075270662
755278|-18000000|1732075270702
755296|-18000000|1732075270742
755201|-18000000|1732075270782
755278|-18000000|1732075270822
753676|-18000000|1732075270862
755319|-18000000|1732075270902
755240|-18000000|1732075270942
755275|-18000000|1732075270982
757251|-18000000|1732075271022
755264|-18000000|1732075271062
755224|-18000000|1732075271102
755238|-18000000|1732075271142
754775|-18000000|1732075271182
755292|-18000000|1732075271222
755236|-18000000|1732075271262
755339|-18000000|1732075271302
755248|-18000000|1732075271342
755233|-18000000|1732075271382
755239|-18000000|1732075271422
755229|-18000000|1732075271462
755349|-18000000|1732075271502
757347|-18000000|1732075271542
755342|-18000000|1732075271582
755307|-18000000|1732075271622
755379|-18000000|1732075271662
755741|-18000000|1732075271702
755304|-18000000|1732075271742
755275|-18000000|1732075271782
755253|-18000000|1732075271822
753671|-18000000|1732075271862
755350|-18000000|1732075271902
755322|-18000000|1732075271942
755375|-18000000|1732075271982
755083|-18000000|1732075272022
755231|-18000000|1732075272062
755249|-18000000|1732075272102
755223|-18000000|1732075272142
760209|-18000000|1732075272182
755304|-18000000|1732075272222
755284|-18000000|1732075272262
755275|-18000000|1732075272302
751021|-18000000|1732075272342
755270|-18000000|1732075272382
755320|-18000000|1732075272422
755269|-18000000|1732075272462
754778|-18000000|1732075272502
755232|-18000000|1732075272542
755283|-18000000|1732075272582
755344|-18000000|1732075272622
753158|-18000000|1732075272662
755331|-18000000|1732075272702
755289|-18000000|1732075272742
755257|-18000000|1732075272782
755313|-18000000|1732075272822
757036|-18000000|1732075272862
755318|-18000000|1732075272902
755272|-18000000|1732075272942
755343|-18000000|1732075272982
760494|-18000000|1732075273022
755382|-18000000|1732075273062
755351|-18000000|1732075273102
755307|-18000000|1732075273142
758564|-18000000|1732075273182
755229|-18000000|1732075273222
755266|-18000000|1732075273262
755289|-18000000|1732075273302
757361|-18000000|1732075273342
755306|-18000000|1732075273382
755317|-18000000|1732075273422
755322|-18000000|1732075273462
755300|-18000000|1732075273502
749484|-18000000|1732075273542
755265|-18000000|1732075273582
755201|-18000000|1732075273622
755276|-18000000|1732075273662
748725|-18000000|1732075273702
755321|-18000000|1732075273742
755245|-18000000|1732075273782
755337|-18000000|1732075273822
754236|-18000000|1732075273862
755314|-18000000|1732075273902
755293|-18000000|1732075273942
755246|-18000000|1732075273982
758773|-18000000|1732075274022
755303|-18000000|1732075274062
755263|-18000000|1732075274102
755290|-18000000|1732075274142
755253|-18000000|1732075274182
749763|-18000000|1732075274222
755264|-18000000|1732075274262
755271|-18000000|1732075274302
755288|-18000000|1732075274342
751954|-18000000|1732075274382
755278|-18000000|1732075274422
755330|-18000000|1732075274462
755284|-18000000|1732075274502
761096|-18000000|1732075274542
755227|-18000000|1732075274582
755361|-18000000|1732075274622
755343|-18000000|1732075274662
754166|-18000000|1732075274702
755295|-18000000|1732075274742
755269|-18000000|1732075274782
755212|-18000000|1732075274822
755153|-18000000|1732075274862
752147|-18000000|1732075274902
755241|-18000000|1732075274942
755347|-18000000|1732075274982
755241|-18000000|1732075275022
760676|-18000000|1732075275062
755331|-18000000|1732075275102
755202|-18000000|1732075275142
755275|-18000000|1732075275182
749405|-18000000|1732075275222
755314|-18000000|1732075275262
755311|-18000000|1732075275302
755209|-18000000|1732075275342
757611|-18000000|1732075275382
755307|-18000000|1732075275422
755322|-18000000|1732075275462
755314|-18000000|1732075275502
755289|-18000000|1732075275542
755433|-18000000|1732075275582
755209|-18000000|1732075275622
755343|-18000000|1732075275662
755241|-18000000|1732075275702
759605|-18000000|1732075275742
755208|-18000000|1732075275782
755325|-18000000|1732075275822
755193|-18000000|1732075275862
755819|-18000000|1732075275902
755297|-18000000|1732075275942
755263|-18000000|1732075275982
755284|-18000000|1732075276022
751615|-18000000|1732075276062
755355|-18000000|1732075276102
755227|-18000000|1732075276142
755229|-18000000|1732075276182
755267|-18000000|1732075276222
755281|-18000000|1732075276262
755262|-18000000|1732075276302
755373|-18000000|1732075276342
755311|-18000000|1732075276382
750903|-18000000|1732075276422
755371|-18000000|1732075276462
755325|-18000000|1732075276502
755270|-18000000|1732075276542
751939|-18000000|1732075276582
755289|-18000000|1732075276622
755229|-18000000|1732075276662
755269|-18000000|1732075276702
754075|-18000000|1732075276742
755298|-18000000|1732075276782
755284|-18000000|1732075276822
755291|-18000000|1732075276862
755142|-18000000|1732075276902
755185|-18000000|1732075276942
755282|-18000000|1732075276983
755292|-18000000|1732075277024
755359|-18000000|1732075277063
750764|-18000000|1732075277102
755272|-18000000|1732075277141
755337|-18000000|1732075277180
755295|-18000000|1732075277219
749608|-18000000|1732075277258
755274|-18000000|1732075277297
755226|-18000000|1732075277336
755314|-18000000|1732075277375
757717|-18000000|1732075277414
755368|-18000000|1732075277453
755303|-18000000|1732075277492
755237|-18000000|1732075277532
755285|-18000000|1732075277572
755199|-18000000|1732075277612
755264|-18000000|1732075277652
755277|-18000000|1732075277692
749353|-18000000|1732075277732
755359|-18000000|1732075277772
755323|-18000000|1732075277812
755334|-18000000|1732075277852
760822|-18000000|1732075277892
755282|-18000000|1732075277932
755212|-18000000|1732075277972
755286|-18000000|1732075278012
759944|-18000000|1732075278052
755310|-18000000|1732075278092
755161|-18000000|1732075278132
755281|-18000000|1732075278172
755260|-18000000|1732075278212
755321|-18000000|1732075278252
755258|-18000000|1732075278292
755259|-18000000|1732075278332
755337|-18000000|1732075278372
749558|-18000000|1732075278412
755255|-18000000|1732075278452
755327|-18000000|1732075278492
755225|-18000000|1732075278532
751099|-18000000|1732075278572
755298|-18000000|1732075278612
755309|-18000000|1732075278652
755303|-18000000|1732075278692
749323|-18000000|1732075278732
755323|-18000000|1732075278772
755208|-18000000|1732075278812
755260|-18000000|1732075278852
755295|-18000000|1732075278892
755304|-18000000|1732075278932
755246|-18000000|1732075278972
755362|-18000000|1732075279012
755247|-18000000|1732075279052
752173|-18000000|1732075279092
755163|-18000000|1732075279132
755262|-18000000|1732075279172
755233|-18000000|1732075279212
760274|-18000000|1732075279252
755298|-18000000|1732075279292
755261|-18000000|1732075279332
755336|-18000000|1732075279372
750942|-18000000|1732075279412
755310|-18000000|1732075279452
755297|-18000000|1732075279492
755299|-18000000|1732075279532
755338|-18000000|1732075279572
755211|-18000000|1732075279612
755329|-18000000|1732075279652
755301|-18000000|1732075279692
755238|-18000000|1732075279732
750136|-18000000|1732075279772
755276|-18000000|1732075279812
755187|-18000000|1732075279852
755281|-18000000|1732075279892
761095|-18000000|1732075279932
755319|-18000000|1732075279972
755319|-18000000|1732075280012
755321|-18000000|1732075280052
760529|-18000000|1732075280092
755317|-18000000|1732075280132
755282|-18000000|1732075280172
755292|-18000000|1732075280212
755273|-18000000|1732075280252
755251|-18000000|1732075280292
755319|-18000000|1732075280332
755275|-18000000|1732075280372
755255|-18000000|1732075280412
755640|-18000000|1732075280452
755246|-18000000|1732075280492
755217|-18000000|1732075280532
755303|-18000000|1732075280572
759725|-18000000|1732075280612
755340|-18000000|1732075280652
755223|-18000000|1732075280692
755197|-18000000|1732075280732
753754|-18000000|1732075280772
755353|-18000000|1732075280812
755117|-18000000|1732075280852
755227|-18000000|1732075280892
755209|-18000000|1732075280932
755247|-18000000|1732075280972
755269|-18000000|1732075281012
755267|-18000000|1732075281052
755269|-18000000|1732075281092
759105|-18000000|1732075281132
755279|-18000000|1732075281172
755331|-18000000|1732075281212
755334|-18000000|1732075281252
759205|-18000000|1732075281292
755215|-18000000|1732075281332
755318|-18000000|1732075281372
755356|-18000000|1732075281412
749109|-18000000|1732075281452
755322|-18000000|1732075281492
755294|-18000000|1732075281532
755350|-18000000|1732075281572
755322|-18000000|1732075281612
755136|-18000000|1732075281652
755324|-18000000|1732075281692
755294|-18000000|1732075281732
755262|-18000000|1732075281772
755637|-18000000|1732075281812
755276|-18000000|1732075281852
755426|-18000000|1732075281892
755316|-18000000|1732075281932
757223|-18000000|1732075281972
755294|-18000000|1732075282012
755254|-18000000|1732075282052
755347|-18000000|1732075282092
757259|-18000000|1732075282132
755269|-18000000|1732075282172
755244|-18000000|1732075282212
755344|-18000000|1732075282252
755262|-18000000|1732075282292
755249|-18000000|1732075282332
755255|-18000000|1732075282372
755300|-18000000|1732075282412
755290|-18000000|1732075282452
760002|-18000000|1732075282492
755328|-18000000|1732075282532
755180|-18000000|1732075282572
755298|-18000000|1732075282612
749546|-18000000|1732075282652
755364|-18000000|1732075282692
755268|-18000000|1732075282732
755244|-18000000|1732075282772
760729|-18000000|1732075282812
755265|-18000000|1732075282852
755320|-18000000|1732075282892
755227|-18000000|1732075282932
755268|-18000000|1732075282972
755304|-18000000|1732075283012
755294|-18000000|1732075283052
755324|-18000000|1732075283092
760629|-18000000|1732075283132
755298|-18000000|1732075283172
755267|-18000000|1732075283212
755313|-18000000|1732075283252
760407|-18000000|1732075283292
755119|-18000000|1732075283332
755224|-18000000|1732075283372
755347|-18000000|1732075283412
756379|-18000000|1732075283452
755296|-18000000|1732075283492
755292|-18000000|1732075283532
755266|-18000000|1732075283572
755382|-18000000|1732075283612
755345|-18000000|1732075283652
755224|-18000000|1732075283692
755292|-18000000|1732075283732
755295|-18000000|1732075283772
761102|-18000000|1732075283812
755115|-18000000|1732075283852
755285|-18000000|1732075283892
755254|-18000000|1732075283932
750177|-18000000|1732075283972
755269|-18000000|1732075284012
755240|-18000000|1732075284052
755246|-18000000|1732075284092
755168|-18000000|1732075284132
755253|-18000000|1732075284172
755248|-18000000|1732075284212
755162|-18000000|1732075284252
755286|-18000000|1732075284292
755203|-18000000|1732075284332
755323|-18000000|1732075284372
755273|-18000000|1732075284412
755369|-18000000|1732075284452
760685|-18000000|1732075284492
755234|-18000000|1732075284532
755321|-18000000|1732075284572
755204|-18000000|1732075284612
749387|-18000000|1732075284652
755315|-18000000|1732075284692
755262|-18000000|1732075284732
755299|-18000000|1732075284772
750323|-18000000|1732075284812
755382|-18000000|1732075284852
755283|-18000000|1732075284892
755304|-18000000|1732075284932
755338|-18000000|1732075284972
755339|-18000000|1732075285012
755211|-18000000|1732075285052
755302|-18000000|1732075285092
755231|-18000000|1732075285132
758350|-18000000|1732075285172
755251|-18000000|1732075285212
755327|-18000000|1732075285252
755270|-18000000|1732075285292
758877|-18000000|1732075285332
755301|-18000000|1732075285372
755198|-18000000|1732075285412
755269|-18000000|1732075285452
759842|-18000000|1732075285492
755269|-18000000|1732075285532
755270|-18000000|1732075285572
755379|-18000000|1732075285612
755287|-18000000|1732075285652
755401|-18000000|1732075285692
755336|-18000000|1732075285732
755336|-18000000|1732075285772
755330|-18000000|1732075285812
749618|-18000000|1732075285852
755404|-18000000|1732075285892
755195|-18000000|1732075285932
755364|-18000000|1732075285972
757413|-18000000|1732075286012
755209|-18000000|1732075286052
755305|-18000000|1732075286092
755199|-18000000|1732075286132
751356|-18000000|1732075286172
755285|-18000000|1732075286212
755246|-18000000|1732075286252
755242|-18000000|1732075286292
755290|-18000000|1732075286332
755271|-18000000|1732075286372
755316|-18000000|1732075286412
755313|-18000000|1732075286452
755308|-18000000|1732075286492
761110|-18000000|1732075286532
755287|-18000000|1732075286572
755281|-18000000|1732075286612
755222|-18000000|1732075286652
750343|-18000000|1732075286692
755292|-18000000|1732075286732
755294|-18000000|1732075286772
755380|-18000000|1732075286812
760903|-18000000|1732075286852
755289|-18000000|1732075286892
755272|-18000000|1732075286932
755332|-18000000|1732075286972
755271|-18000000|1732075287012
755234|-18000000|1732075287052
755214|-18000000|1732075287092
755277|-18000000|1732075287132
755293|-18000000|1732075287172
756196|-18000000|1732075287212
755293|-18000000|1732075287252
755226|-18000000|1732075287292
755257|-18000000|1732075287332
757447|-18000000|1732075287372
755321|-18000000|1732075287412
755235|-18000000|1732075287452
755178|-18000000|1732075287492
761157|-18000000|1732075287532
755320|-18000000|1732075287572
755086|-18000000|1732075287612
755301|-18000000|1732075287652
754878|-18000000|1732075287692
755290|-18000000|1732075287732
755299|-18000000|1732075287772
755250|-18000000|1732075287812
755321|-18000000|1732075287852
758077|-18000000|1732075287892
755367|-18000000|1732075287932
755225|-18000000|1732075287972
755396|-18000000|1732075288012
756008|-18000000|1732075288052
755311|-18000000|1732075288092
755223|-18000000|1732075288132
755344|-18000000|1732075288172
759754|-18000000|1732075288212
755321|-18000000|1732075288252
755272|-18000000|1732075288292
755177|-18000000|1732075288332
751979|-18000000|1732075288372
755291|-18000000|1732075288412
755283|-18000000|1732075288452
755276|-18000000|1732075288492
755308|-18000000|1732075288532
752385|-18000000|1732075288572
755301|-18000000|1732075288612
755271|-18000000|1732075288652
757441|-18000000|1732075288692
755357|-18000000|1732075288732
755204|-18000000|1732075288772
755221|-18000000|1732075288812
761240|-18000000|1732075288852
755275|-18000000|1732075288892
755282|-18000000|1732075288932
755311|-18000000|1732075288972
758222|-18000000|1732075289012
755263|-18000000|1732075289052
755229|-18000000|1732075289092
755322|-18000000|1732075289132
755245|-18000000|1732075289172
756381|-18000000|1732075289212
755418|-18000000|1732075289252
755211|-18000000|1732075289292
755282|-18000000|1732075289332
761110|-18000000|1732075289372
755217|-18000000|1732075289412
755277|-18000000|1732075289452
755236|-18000000|1732075289492
753556|-18000000|1732075289532
755304|-18000000|1732075289572
755226|-18000000|1732075289612
755217|-18000000|1732075289652
758611|-18000000|1732075289692
755308|-18000000|1732075289732
755246|-18000000|1732075289772
755291|-18000000|1732075289812
755318|-18000000|1732075289852
754639|-18000000|1732075289892
755259|-18000000|1732075289932
755297|-18000000|1732075289972
755303|-18000000|1732075290012
758081|-18000000|1732075290052
755244|-18000000|1732075290092
755153|-18000000|1732075290132
755148|-18000000|1732075290172
753393|-18000000|1732075290212
755248|-18000000|1732075290252
755222|-18000000|1732075290292
755253|-18000000|1732075290332
759943|-18000000|1732075290372
755262|-18000000|1732075290412
755144|-18000000|1732075290452
755194|-18000000|1732075290492
755323|-18000000|1732075290532
755101|-18000000|1732075290572
755235|-18000000|1732075290612
755279|-18000000|1732075290652
755223|-18000000|1732075290692
758339|-18000000|1732075290732
755256|-18000000|1732075290772
755255|-18000000|1732075290812
755300|-18000000|1732075290852
760583|-18000000|1732075290892
755321|-18000000|1732075290932
755256|-18000000|1732075290972
755323|-18000000|1732075291012
757739|-18000000|1732075291052
755306|-18000000|1732075291092
755268|-18000000|1732075291132
755189|-18000000|1732075291172
755245|-18000000|1732075291212
755356|-18000000|1732075291252
755239|-18000000|1732075291292
755225|-18000000|1732075291332
755343|-18000000|1732075291372
761416|-18000000|1732075291412
755259|-18000000|1732075291452
755300|-18000000|1732075291492
755305|-18000000|1732075291532
761225|-18000000|1732075291572
755200|-18000000|1732075291612
755263|-18000000|1732075291652
755242|-18000000|1732075291692
749354|-18000000|1732075291732
755260|-18000000|1732075291772
755292|-18000000|1732075291812
755303|-18000000|1732075291852
755250|-18000000|1732075291892
755365|-18000000|1732075291932
755285|-18000000|1732075291972
755263|-18000000|1732075292012
755280|-18000000|1732075292052
760387|-18000000|1732075292092
755229|-18000000|1732075292132
755342|-18000000|1732075292172
755218|-18000000|1732075292212
759526|-18000000|1732075292252
755337|-18000000|1732075292292
755418|-18000000|1732075292332
755360|-18000000|1732075292372
749920|-18000000|1732075292412
755267|-18000000|1732075292452
755249|-18000000|1732075292492
755320|-18000000|1732075292532
755284|-18000000|1732075292572
755368|-18000000|1732075292612
755260|-18000000|1732075292652
755242|-18000000|1732075292692
755276|-18000000|1732075292732
756441|-18000000|1732075292772
755299|-18000000|1732075292812
755267|-18000000|1732075292852
755299|-18000000|1732075292892
755327|-18000000|1732075292932
755264|-18000000|1732075292972
755276|-18000000|1732075293012
755247|-18000000|1732075293052
759931|-18000000|1732075293092
755310|-18000000|1732075293132
755327|-18000000|1732075293172
755338|-18000000|1732075293212
755278|-18000000|1732075293252
755308|-18000000|1732075293292
755225|-18000000|1732075293332
755290|-18000000|1732075293372
755303|-18000000|1732075293412
749610|-18000000|1732075293452
755342|-18000000|1732075293492
755353|-18000000|1732075293532
755316|-18000000|1732075293572
749361|-18000000|1732075293612
755307|-18000000|1732075293652
755289|-18000000|1732075293692
755244|-18000000|1732075293732
755691|-18000000|1732075293772
755303|-18000000|1732075293812
755259|-18000000|1732075293852
755228|-18000000|1732075293892
755399|-18000000|1732075293932
755243|-18000000|1732075293972
755204|-18000000|1732075294012
755300|-18000000|1732075294052
755291|-18000000|1732075294092
760927|-18000000|1732075294132
755247|-18000000|1732075294172
755311|-18000000|1732075294212
755288|-18000000|1732075294252
758350|-18000000|1732075294292
755311|-18000000|1732075294332
755254|-18000000|1732075294372
760074|-18000000|1732075294412
755275|-18000000|1732075294452
755282|-18000000|1732075294492
755351|-18000000|1732075294532
755293|-18000000|1732075294572
755229|-18000000|1732075294612
755316|-18000000|1732075294652
755266|-18000000|1732075294692
755308|-18000000|1732075294732
761333|-18000000|1732075294772
755318|-18000000|1732075294812
755289|-18000000|1732075294852
755312|-18000000|1732075294892
750868|-18000000|1732075294932
755328|-18000000|1732075294972
755285|-18000000|1732075295012
755258|-18000000|1732075295052
750145|-18000000|1732075295092
755280|-18000000|1732075295132
755264|-18000000|1732075295172
755291|-18000000|1732075295212
755345|-18000000|1732075295252
755269|-18000000|1732075295292
755232|-18000000|1732075295332
755236|-18000000|1732075295372
755354|-18000000|1732075295412
756606|-18000000|1732075295452
755275|-18000000|1732075295492
755322|-18000000|1732075295532
755349|-18000000|1732075295572
756158|-18000000|1732075295612
755208|-18000000|1732075295652
755314|-18000000|1732075295692
755290|-18000000|1732075295732
761200|-18000000|1732075295772
755271|-18000000|1732075295812
755296|-18000000|1732075295852
755253|-18000000|1732075295892
755320|-18000000|1732075295932
755369|-18000000|1732075295972
755227|-18000000|1732075296012
755269|-18000000|1732075296052
755203|-18000000|1732075296092
759780|-18000000|1732075296132
755322|-18000000|1732075296172
755273|-18000000|1732075296212
755260|-18000000|1732075296252
750790|-18000000|1732075296292
755415|-18000000|1732075296332
755412|-18000000|1732075296372
755299|-18000000|1732075296412
750717|-18000000|1732075296452
755308|-18000000|1732075296492
755291|-18000000|1732075296532
755316|-18000000|1732075296572
755315|-18000000|1732075296612
755285|-18000000|1732075296652
755253|-18000000|1732075296692
755214|-18000000|1732075296732
755279|-18000000|1732075296772
749630|-18000000|1732075296812
755272|-18000000|1732075296852
755216|-18000000|1732075296892
755293|-18000000|1732075296932
755664|-18000000|1732075296972
755249|-18000000|1732075297012
755248|-18000000|1732075297052
755360|-18000000|1732075297092
760463|-18000000|1732075297132
755328|-18000000|1732075297172
755262|-18000000|1732075297212
755333|-18000000|1732075297252
755307|-18000000|1732075297292
755316|-18000000|1732075297332
755264|-18000000|1732075297372
755360|-18000000|1732075297412
755258|-18000000|1732075297452
758626|-18000000|1732075297492
755291|-18000000|1732075297532
755224|-18000000|1732075297572
755320|-18000000|1732075297612
756754|-18000000|1732075297652
755403|-18000000|1732075297692
755290|-18000000|1732075297732
755339|-18000000|1732075297772
758076|-18000000|1732075297812
755245|-18000000|1732075297852
755328|-18000000|1732075297892
755274|-18000000|1732075297932
755319|-18000000|1732075297972
755363|-18000000|1732075298012
755281|-18000000|1732075298052
755363|-18000000|1732075298092
755373|-18000000|1732075298132
756736|-18000000|1732075298172
755365|-18000000|1732075298212
755276|-18000000|1732075298252
755348|-18000000|1732075298292
754174|-18000000|1732075298332
755241|-18000000|1732075298372
755324|-18000000|1732075298412
755280|-18000000|1732075298452
752139|-18000000|1732075298492
755296|-18000000|1732075298532
755310|-18000000|1732075298572
755234|-18000000|1732075298612
755220|-18000000|1732075298652
755299|-18000000|1732075298692
755236|-18000000|1732075298732
755303|-18000000|1732075298772
755300|-18000000|1732075298812
750524|-18000000|1732075298852
755304|-18000000|1732075298892
755245|-18000000|1732075298932
755333|-18000000|1732075298972
749452|-18000000|1732075299012
755248|-18000000|1732075299052
755302|-18000000|1732075299092
755316|-18000000|1732075299132
749904|-18000000|1732075299172
755192|-18000000|1732075299212
755250|-18000000|1732075299252
755342|-18000000|1732075299292
755314|-18000000|1732075299332
755229|-18000000|1732075299372
755290|-18000000|1732075299412
755288|-18000000|1732075299452
755264|-18000000|1732075299492
755737|-18000000|1732075299532
755289|-18000000|1732075299572
755397|-18000000|1732075299612
755351|-18000000|1732075299652
757069|-18000000|1732075299692
755198|-18000000|1732075299732
755298|-18000000|1732075299772
755095|-18000000|1732075299812
760943|-18000000|1732075299852
755314|-18000000|1732075299892
755315|-18000000|1732075299932
755290|-18000000|1732075299972
755229|-18000000|1732075300012
755260|-18000000|1732075300052
755304|-18000000|1732075300092
755310|-18000000|1732075300132
758983|-18000000|1732075300172
755315|-18000000|1732075300212
755330|-18000000|1732075300252
755259|-18000000|1732075300292
749337|-18000000|1732075300332
755260|-18000000|1732075300372
755197|-18000000|1732075300412
755223|-18000000|1732075300452
757595|-18000000|1732075300492
755351|-18000000|1732075300532
755255|-18000000|1732075300572
755264|-18000000|1732075300612
755366|-18000000|1732075300652
755224|-18000000|1732075300692
755176|-18000000|1732075300732
755297|-18000000|1732075300772
755283|-18000000|1732075300812
757202|-18000000|1732075300853
755265|-18000000|1732075300894
755208|-18000000|1732075300935
755314|-18000000|1732075300976
759782|-18000000|1732075301017
755360|-18000000|1732075301056
755293|-18000000|1732075301095
755293|-18000000|1732075301135
749300|-18000000|1732075301175
755262|-18000000|1732075301215
755320|-18000000|1732075301255
755320|-18000000|1732075301295
755230|-18000000|1732075301335
755216|-18000000|1732075301375
755295|-18000000|1732075301415
755297|-18000000|1732075301455
755230|-18000000|1732075301495
761224|-18000000|1732075301535
755228|-18000000|1732075301575
755331|-18000000|1732075301615
755268|-18000000|1732075301655
750562|-18000000|1732075301695
755302|-18000000|1732075301735
755285|-18000000|1732075301775
755357|-18000000|1732075301815
749411|-18000000|1732075301855
755236|-18000000|1732075301895
755276|-18000000|1732075301935
755340|-18000000|1732075301975
755268|-18000000|1732075302015
755295|-18000000|1732075302055
755300|-18000000|1732075302095
755321|-18000000|1732075302135
755379|-18000000|1732075302175
757428|-18000000|1732075302215
755227|-18000000|1732075302255
755213|-18000000|1732075302295
755341|-18000000|1732075302335
754797|-18000000|1732075302375
755333|-18000000|1732075302415
755300|-18000000|1732075302455
755348|-18000000|1732075302495
749484|-18000000|1732075302535
755278|-18000000|1732075302575
755276|-18000000|1732075302615
755185|-18000000|1732075302655
755312|-18000000|1732075302695
755289|-18000000|1732075302735
755313|-18000000|1732075302775
755153|-18000000|1732075302815
755238|-18000000|1732075302855
754082|-18000000|1732075302895
755355|-18000000|1732075302935
755309|-18000000|1732075302975
755250|-18000000|1732075303015
749318|-18000000|1732075303055
755315|-18000000|1732075303095
755223|-18000000|1732075303135
755314|-18000000|1732075303175
755233|-18000000|1732075303215
755232|-18000000|1732075303255
755277|-18000000|1732075303295
755328|-18000000|1732075303335
753546|-18000000|1732075303375
755359|-18000000|1732075303415
755273|-18000000|1732075303455
755268|-18000000|1732075303495
755258|-18000000|1732075303535
760753|-18000000|1732075303575
755270|-18000000|1732075303615
755376|-18000000|1732075303655
755254|-18000000|1732075303695
754960|-18000000|1732075303735
755248|-18000000|1732075303775
755233|-18000000|1732075303815
755229|-18000000|1732075303855
756795|-18000000|1732075303895
755350|-18000000|1732075303935
755250|-18000000|1732075303975
755274|-18000000|1732075304015
758566|-18000000|1732075304055
755347|-18000000|1732075304095
755319|-18000000|1732075304135
755287|-18000000|1732075304175
755263|-18000000|1732075304215
760967|-18000000|1732075304255
755329|-18000000|1732075304295
755270|-18000000|1732075304335
755361|-18000000|1732075304375
761131|-18000000|1732075304415
755165|-18000000|1732075304455
755263|-18000000|1732075304495
755316|-18000000|1732075304535
750557|-18000000|1732075304575
755324|-18000000|1732075304615
755373|-18000000|1732075304655
755355|-18000000|1732075304695
758918|-18000000|1732075304735
755293|-18000000|1732075304775
755293|-18000000|1732075304815
755377|-18000000|1732075304855
755299|-18000000|1732075304895
761056|-18000000|1732075304935
755325|-18000000|1732075304975
755212|-18000000|1732075305015
755273|-18000000|1732075305055
749975|-18000000|1732075305095
755345|-18000000|1732075305135
755231|-18000000|1732075305175
755257|-18000000|1732075305215
760233|-18000000|1732075305255
755283|-18000000|1732075305295
755264|-18000000|1732075305335
756020|-18000000|1732075305375
755250|-18000000|1732075305415
755219|-18000000|1732075305455
755244|-18000000|1732075305495
755346|-18000000|1732075305535
748994|-18000000|1732075305575
755222|-18000000|1732075305615
755252|-18000000|1732075305655
755280|-18000000|1732075305695
753054|-18000000|1732075305735
755313|-18000000|1732075305775
755352|-18000000|1732075305815
755289|-18000000|1732075305855
755475|-18000000|1732075305895
755270|-18000000|1732075305935
755366|-18000000|1732075305975
755231|-18000000|1732075306015
750583|-18000000|1732075306055
755295|-18000000|1732075306095
755214|-18000000|1732075306135
755240|-18000000|1732075306175
755265|-18000000|1732075306215
753557|-18000000|1732075306255
755288|-18000000|1732075306295
755319|-18000000|1732075306335
755285|-18000000|1732075306375
755589|-18000000|1732075306415
755285|-18000000|1732075306455
755282|-18000000|1732075306495
755317|-18000000|1732075306535
755537|-18000000|1732075306575
755332|-18000000|1732075306615
755318|-18000000|1732075306655
755329|-18000000|1732075306695
756742|-18000000|1732075306735
755257|-18000000|1732075306775
755269|-18000000|1732075306815
755157|-18000000|1732075306855
755308|-18000000|1732075306895
755322|-18000000|1732075306935
755242|-18000000|1732075306975
755344|-18000000|1732075307015
755370|-18000000|1732075307055
749409|-18000000|1732075307095
755279|-18000000|1732075307135
755320|-18000000|1732075307175
755184|-18000000|1732075307215
760123|-18000000|1732075307255
755275|-18000000|1732075307295
755212|-18000000|1732075307335
755283|-18000000|1732075307375
749458|-18000000|1732075307415
755304|-18000000|1732075307455
755305|-18000000|1732075307495
755320|-18000000|1732075307535
755309|-18000000|1732075307575
755288|-18000000|1732075307615
755208|-18000000|1732075307655
755246|-18000000|1732075307695
755313|-18000000|1732075307735
760108|-18000000|1732075307775
755244|-18000000|1732075307815
755244|-18000000|1732075307855
755204|-18000000|1732075307895
760987|-18000000|1732075307935
755302|-18000000|1732075307975
755226|-18000000|1732075308015
755248|-18000000|1732075308055
758918|-18000000|1732075308095
755288|-18000000|1732075308135
755192|-18000000|1732075308175
755293|-18000000|1732075308215
755353|-18000000|1732075308255
755273|-18000000|1732075308295
755181|-18000000|1732075308335
755294|-18000000|1732075308375
755285|-18000000|1732075308415
760828|-18000000|1732075308455
755293|-18000000|1732075308495
755265|-18000000|1732075308535
755268|-18000000|1732075308575
755109|-18000000|1732075308615
755229|-18000000|1732075308655
755334|-18000000|1732075308695
755325|-18000000|1732075308735
749471|-18000000|1732075308775
755300|-18000000|1732075308815
755290|-18000000|1732075308855
755299|-18000000|1732075308895
755234|-18000000|1732075308935
755253|-18000000|1732075308975
755291|-18000000|1732075309015
755347|-18000000|1732075309055
755223|-18000000|1732075309095
752045|-18000000|1732075309135
755284|-18000000|1732075309175
755238|-18000000|1732075309215
755299|-18000000|1732075309255
761290|-18000000|1732075309295
755312|-18000000|1732075309335
755281|-18000000|1732075309375
755291|-18000000|1732075309415
754265|-18000000|1732075309455
755278|-18000000|1732075309495
755258|-18000000|1732075309535
755208|-18000000|1732075309575
755293|-18000000|1732075309615
755246|-18000000|1732075309655
755281|-18000000|1732075309695
755199|-18000000|1732075309735
755372|-18000000|1732075309775
758618|-18000000|1732075309815
755306|-18000000|1732075309855
755248|-18000000|1732075309895
755273|-18000000|1732075309935
750970|-18000000|1732075309975
755422|-18000000|1732075310015
755353|-18000000|1732075310055
755283|-18000000|1732075310095
758973|-18000000|1732075310135
755321|-18000000|1732075310175
755378|-18000000|1732075310215
755280|-18000000|1732075310255
755220|-18000000|1732075310295
755265|-18000000|1732075310335
755295|-18000000|1732075310375
755299|-18000000|1732075310415
755242|-18000000|1732075310455
754023|-18000000|1732075310495
755324|-18000000|1732075310535
755245|-18000000|1732075310575
755250|-18000000|1732075310615
750069|-18000000|1732075310655
755292|-18000000|1732075310695
755286|-18000000|1732075310735
755279|-18000000|1732075310775
751022|-18000000|1732075310815
755212|-18000000|1732075310855
755336|-18000000|1732075310895
755265|-18000000|1732075310935
755276|-18000000|1732075310975
755236|-18000000|1732075311015
755271|-18000000|1732075311055
755297|-18000000|1732075311095
751332|-18000000|1732075311135
755284|-18000000|1732075311175
755363|-18000000|1732075311215
755351|-18000000|1732075311255
749828|-18000000|1732075311295
755272|-18000000|1732075311335
755345|-18000000|1732075311375
755287|-18000000|1732075311415
761065|-18000000|1732075311455
755257|-18000000|1732075311495
755288|-18000000|1732075311535
755282|-18000000|1732075311575
755297|-18000000|1732075311615
755256|-18000000|1732075311655
755219|-18000000|1732075311695
755279|-18000000|1732075311735
755313|-18000000|1732075311775
750550|-18000000|1732075311815
755284|-18000000|1732075311855
755259|-18000000|1732075311895
755265|-18000000|1732075311935
750313|-18000000|1732075311975
755391|-18000000|1732075312015
755375|-18000000|1732075312055
755279|-18000000|1732075312095
749273|-18000000|1732075312135
755231|-18000000|1732075312175
755261|-18000000|1732075312215
755146|-18000000|1732075312255
755232|-18000000|1732075312295
755290|-18000000|1732075312335
755264|-18000000|1732075312375
755237|-18000000|1732075312415
755323|-18000000|1732075312455
757101|-18000000|1732075312495
755324|-18000000|1732075312535
755260|-18000000|1732075312575
755211|-18000000|1732075312615
755698|-18000000|1732075312655
755306|-18000000|1732075312695
755253|-18000000|1732075312735
755319|-18000000|1732075312775
750984|-18000000|1732075312815
755232|-18000000|1732075312855
755279|-18000000|1732075312895
755273|-18000000|1732075312935
755219|-18000000|1732075312975
755238|-18000000|1732075313015
755267|-18000000|1732075313055
755313|-18000000|1732075313095
755332|-18000000|1732075313135
754180|-18000000|1732075313175
755298|-18000000|1732075313215
755260|-18000000|1732075313255
755238|-18000000|1732075313295
749611|-18000000|1732075313335
755270|-18000000|1732075313375
755334|-18000000|1732075313415
755304|-18000000|1732075313455
749315|-18000000|1732075313495
755200|-18000000|1732075313535
755306|-18000000|1732075313575
755279|-18000000|1732075313615
755279|-18000000|1732075313655
755339|-18000000|1732075313695
755206|-18000000|1732075313735
755324|-18000000|1732075313775
755256|-18000000|1732075313815
761242|-18000000|1732075313855
755210|-18000000|1732075313895
755217|-18000000|1732075313935
755273|-18000000|1732075313975
751191|-18000000|1732075314015
755246|-18000000|1732075314055
755238|-18000000|1732075314095
755351|-18000000|1732075314135
761143|-18000000|1732075314175
755343|-18000000|1732075314215
755283|-18000000|1732075314255
755332|-18000000|1732075314295
755274|-18000000|1732075314335
755192|-18000000|1732075314375
755311|-18000000|1732075314415
755199|-18000000|1732075314455
755327|-18000000|1732075314495
750705|-18000000|1732075314535
755279|-18000000|1732075314575
755316|-18000000|1732075314615
755250|-18000000|1732075314655
751033|-18000000|1732075314695
755269|-18000000|1732075314735
755306|-18000000|1732075314775
755197|-18000000|1732075314815
761223|-18000000|1732075314855
755208|-18000000|1732075314895
755276|-18000000|1732075314935
755349|-18000000|1732075314975
755171|-18000000|1732075315015
755243|-18000000|1732075315055
755275|-18000000|1732075315095
755249|-18000000|1732075315135
755285|-18000000|1732075315175
753988|-18000000|1732075315215
755277|-18000000|1732075315255
755391|-18000000|1732075315295
755164|-18000000|1732075315335
751100|-18000000|1732075315375
755209|-18000000|1732075315415
755137|-18000000|1732075315455
755191|-18000000|1732075315495
752651|-18000000|1732075315535
755267|-18000000|1732075315575
755349|-18000000|1732075315615
755380|-18000000|1732075315655
755242|-18000000|1732075315695
755228|-18000000|1732075315735
755246|-18000000|1732075315775
755271|-18000000|1732075315815
755307|-18000000|1732075315855
757143|-18000000|1732075315895
755250|-18000000|1732075315935
755249|-18000000|1732075315975
755305|-18000000|1732075316015
756403|-18000000|1732075316055
755346|-18000000|1732075316095
755224|-18000000|1732075316135
755211|-18000000|1732075316175
759834|-18000000|1732075316215
755274|-18000000|1732075316255
755310|-18000000|1732075316295
755416|-18000000|1732075316335
755229|-18000000|1732075316375
755264|-18000000|1732075316415
755242|-18000000|1732075316455
755230|-18000000|1732075316495
754076|-18000000|1732075316535
755274|-18000000|1732075316575
755272|-18000000|1732075316615
755232|-18000000|1732075316655
758259|-18000000|1732075316695
755179|-18000000|1732075316735
755228|-18000000|1732075316775
755309|-18000000|1732075316815
754521|-18000000|1732075316855
755333|-18000000|1732075316895
755205|-18000000|1732075316935
755205|-18000000|1732075316975
755251|-18000000|1732075317015
755345|-18000000|1732075317055
755267|-18000000|1732075317095
755321|-18000000|1732075317135
755281|-18000000|1732075317175
749328|-18000000|1732075317215
755177|-18000000|1732075317255
755294|-18000000|1732075317295
755288|-18000000|1732075317335
752033|-18000000|1732075317375
755272|-18000000|1732075317415
755252|-18000000|1732075317455
755195|-18000000|1732075317495
760119|-18000000|1732075317535
755278|-18000000|1732075317575
755278|-18000000|1732075317615
755125|-18000000|1732075317655
755262|-18000000|1732075317695
755233|-18000000|1732075317735
755275|-18000000|1732075317775
755243|-18000000|1732075317815
755300|-18000000|1732075317855
759689|-18000000|1732075317895
755239|-18000000|1732075317935
755240|-18000000|1732075317975
755260|-18000000|1732075318015
760955|-18000000|1732075318055
755380|-18000000|1732075318095
755186|-18000000|1732075318135
755263|-18000000|1732075318175
750561|-18000000|1732075318215
755227|-18000000|1732075318255
755354|-18000000|1732075318295
755287|-18000000|1732075318335
755320|-18000000|1732075318375
755324|-18000000|1732075318415
755300|-18000000|1732075318455
755412|-18000000|1732075318495
755240|-18000000|1732075318535
749014|-18000000|1732075318575
755265|-18000000|1732075318615
755222|-18000000|1732075318655
755275|-18000000|1732075318695
750259|-18000000|1732075318735
755267|-18000000|1732075318775
755326|-18000000|1732075318815
755301|-18000000|1732075318855
756292|-18000000|1732075318895
755316|-18000000|1732075318935
755318|-18000000|1732075318975
755302|-18000000|1732075319015
754426|-18000000|1732075319055
755179|-18000000|1732075319095
755284|-18000000|1732075319135
755275|-18000000|1732075319175
755246|-18000000|1732075319215
761147|-18000000|1732075319255
755227|-18000000|1732075319295
755203|-18000000|1732075319335
755252|-18000000|1732075319375
756873|-18000000|1732075319415
755329|-18000000|1732075319455
755233|-18000000|1732075319495
755321|-18000000|1732075319535
757091|-18000000|1732075319575
755339|-18000000|1732075319615
755325|-18000000|1732075319655
755217|-18000000|1732075319695
751821|-18000000|1732075319735
755261|-18000000|1732075319775
755255|-18000000|1732075319815
755381|-18000000|1732075319855
755303|-18000000|1732075319895
754848|-18000000|1732075319935
755339|-18000000|1732075319975
755326|-18000000|1732075320015
755261|-18000000|1732075320055
752152|-18000000|1732075320095
755293|-18000000|1732075320135
755346|-18000000|1732075320175
755306|-18000000|1732075320215
760943|-18000000|1732075320255
755270|-18000000|1732075320295
755284|-18000000|1732075320335
755250|-18000000|1732075320375
758112|-18000000|1732075320415
755277|-18000000|1732075320455
755264|-18000000|1732075320495
755311|-18000000|1732075320535
755226|-18000000|1732075320575
752735|-18000000|1732075320615
755261|-18000000|1732075320655
755277|-18000000|1732075320695
755268|-18000000|1732075320735
750098|-18000000|1732075320775
755238|-18000000|1732075320815
755338|-18000000|1732075320855
755198|-18000000|1732075320895
756709|-18000000|1732075320935
755273|-18000000|1732075320975
755362|-18000000|1732075321015
755377|-18000000|1732075321055
752213|-18000000|1732075321095
755272|-18000000|1732075321135
755264|-18000000|1732075321175
755193|-18000000|1732075321215
755358|-18000000|1732075321255
753681|-18000000|1732075321295
755218|-18000000|1732075321335
755242|-18000000|1732075321375
755184|-18000000|1732075321415
760728|-18000000|1732075321455
755319|-18000000|1732075321495
755352|-18000000|1732075321535
755257|-18000000|1732075321575
751186|-18000000|1732075321615
755307|-18000000|1732075321655
755275|-18000000|1732075321695
755343|-18000000|1732075321735
749639|-18000000|1732075321775
755275|-18000000|1732075321815
755277|-18000000|1732075321855
755298|-18000000|1732075321895
754894|-18000000|1732075321935
755281|-18000000|1732075321975
755266|-18000000|1732075322015
755291|-18000000|1732075322055
760655|-18000000|1732075322095
755354|-18000000|1732075322135
755342|-18000000|1732075322175
755245|-18000000|1732075322215
759907|-18000000|1732075322255
755219|-18000000|1732075322295
755372|-18000000|1732075322335
755323|-18000000|1732075322375
761089|-18000000|1732075322415
755279|-18000000|1732075322455
755144|-18000000|1732075322495
755291|-18000000|1732075322535
755259|-18000000|1732075322575
755211|-18000000|1732075322615
755154|-18000000|1732075322655
755234|-18000000|1732075322695
755295|-18000000|1732075322735
761851|-18000000|1732075322775
755264|-18000000|1732075322815
755265|-18000000|1732075322855
755256|-18000000|1732075322895
749490|-18000000|1732075322935
755196|-18000000|1732075322975
755193|-18000000|1732075323015
755278|-18000000|1732075323055
759485|-18000000|1732075323095
755260|-18000000|1732075323135
755212|-18000000|1732075323175
755271|-18000000|1732075323215
755265|-18000000|1732075323255
755206|-18000000|1732075323295
755171|-18000000|1732075323335
755263|-18000000|1732075323375
755213|-18000000|1732075323415
761457|-18000000|1732075323455
755280|-18000000|1732075323495
755281|-18000000|1732075323535
755287|-18000000|1732075323575
756309|-18000000|1732075323615
755290|-18000000|1732075323655
755251|-18000000|1732075323695
755291|-18000000|1732075323735
761330|-18000000|1732075323775
755377|-18000000|1732075323815
755316|-18000000|1732075323855
755236|-18000000|1732075323895
755318|-18000000|1732075323935
755187|-18000000|1732075323975
755256|-18000000|1732075324015
755219|-18000000|1732075324055
755236|-18000000|1732075324095
749388|-18000000|1732075324135
755318|-18000000|1732075324175
755307|-18000000|1732075324215
755247|-18000000|1732075324255
759100|-18000000|1732075324295
755308|-18000000|1732075324335
755253|-18000000|1732075324375
755351|-18000000|1732075324415
749923|-18000000|1732075324455
755287|-18000000|1732075324495
755229|-18000000|1732075324535
755266|-18000000|1732075324575
755290|-18000000|1732075324615
755259|-18000000|1732075324655
755337|-18000000|1732075324695
755156|-18000000|1732075324735
755314|-18000000|1732075324775
749253|-18000000|1732075324815
755315|-18000000|1732075324855
755311|-18000000|1732075324896
755239|-18000000|1732075324937
749509|-18000000|1732075324978
755279|-18000000|1732075325019
755309|-18000000|1732075325060
755321|-18000000|1732075325101
749312|-18000000|1732075325142
755279|-18000000|1732075325183
755238|-18000000|1732075325224
755213|-18000000|1732075325265
755188|-18000000|1732075325306
755230|-18000000|1732075325347
755289|-18000000|1732075325388
755254|-18000000|1732075325429
755265|-18000000|1732075325470
751327|-18000000|1732075325511
755280|-18000000|1732075325552
755285|-18000000|1732075325593
755282|-18000000|1732075325634
753978|-18000000|1732075325675
755290|-18000000|1732075325716
755228|-18000000|1732075325757
755209|-18000000|1732075325798
753467|-18000000|1732075325839
755328|-18000000|1732075325880
755327|-18000000|1732075325921
755306|-18000000|1732075325962
755261|-18000000|1732075326003
755280|-18000000|1732075326044
755230|-18000000|1732075326085
755228|-18000000|1732075326126
755176|-18000000|1732075326167
759671|-18000000|1732075326208
755281|-18000000|1732075326249
755253|-18000000|1732075326290
755243|-18000000|1732075326331
753200|-18000000|1732075326372
755285|-18000000|1732075326413
755270|-18000000|1732075326454
755265|-18000000|1732075326495
758802|-18000000|1732075326536
755114|-18000000|1732075326577
755248|-18000000|1732075326618
755298|-18000000|1732075326659
755312|-18000000|1732075326700
755337|-18000000|1732075326741
755294|-18000000|1732075326782
755278|-18000000|1732075326823
755248|-18000000|1732075326864
748765|-18000000|1732075326905
755268|-18000000|1732075326946
755250|-18000000|1732075326987
755348|-18000000|1732075327028
752608|-18000000|1732075327069
755294|-18000000|1732075327110
755384|-18000000|1732075327151
755296|-18000000|1732075327192
750703|-18000000|1732075327233
755276|-18000000|1732075327274
755272|-18000000|1732075327315
755258|-18000000|1732075327356
755285|-18000000|1732075327397
755233|-18000000|1732075327438
755384|-18000000|1732075327479
755301|-18000000|1732075327520
755670|-18000000|1732075327561
755276|-18000000|1732075327602
755324|-18000000|1732075327643
755313|-18000000|1732075327684
757974|-18000000|1732075327725
755230|-18000000|1732075327766
755193|-18000000|1732075327807
755264|-18000000|1732075327848
757664|-18000000|1732075327889
755210|-18000000|1732075327930
755247|-18000000|1732075327971
755299|-18000000|1732075328012
755421|-18000000|1732075328053
755242|-18000000|1732075328094
755302|-18000000|1732075328135
755398|-18000000|1732075328176
755239|-18000000|1732075328217
759515|-18000000|1732075328258
755229|-18000000|1732075328299
755320|-18000000|1732075328340
755271|-18000000|1732075328381
760994|-18000000|1732075328422
755367|-18000000|1732075328463
755202|-18000000|1732075328504
755365|-18000000|1732075328545
750299|-18000000|1732075328586
755240|-18000000|1732075328627
755289|-18000000|1732075328668
755360|-18000000|1732075328709
755291|-18000000|1732075328750
755296|-18000000|1732075328791
755229|-18000000|1732075328832
755368|-18000000|1732075328873
755279|-18000000|1732075328914
761194|-18000000|1732075328955
755263|-18000000|1732075328996
755383|-18000000|1732075329037
755290|-18000000|1732075329078
751965|-18000000|1732075329119
755353|-18000000|1732075329160
755299|-18000000|1732075329201
755203|-18000000|1732075329242
761104|-18000000|1732075329283
755286|-18000000|1732075329324
755287|-18000000|1732075329365
755311|-18000000|1732075329406
755362|-18000000|1732075329447
755219|-18000000|1732075329488
755286|-18000000|1732075329529
755250|-18000000|1732075329570
755256|-18000000|1732075329611
749516|-18000000|1732075329652
755277|-18000000|1732075329693
755318|-18000000|1732075329734
755235|-18000000|1732075329775
760722|-18000000|1732075329816
755264|-18000000|1732075329857
755378|-18000000|1732075329898
755331|-18000000|1732075329939
760052|-18000000|1732075329980
755274|-18000000|1732075330021
755332|-18000000|1732075330062
755247|-18000000|1732075330103
755219|-18000000|1732075330144
755319|-18000000|1732075330185
755252|-18000000|1732075330226
755237|-18000000|1732075330267
755362|-18000000|1732075330308
756664|-18000000|1732075330349
755260|-18000000|1732075330390
755203|-18000000|1732075330431
755214|-18000000|1732075330472
756520|-18000000|1732075330513
755216|-18000000|1732075330554
755225|-18000000|1732075330595
755258|-18000000|1732075330636
753576|-18000000|1732075330677
755201|-18000000|1732075330718
755313|-18000000|1732075330759
755306|-18000000|1732075330800
755266|-18000000|1732075330841
755272|-18000000|1732075330882
755251|-18000000|1732075330923
755236|-18000000|1732075330964
755291|-18000000|1732075331005
759111|-18000000|1732075331046
755277|-18000000|1732075331087
755294|-18000000|1732075331128
755320|-18000000|1732075331169
753115|-18000000|1732075331210
755268|-18000000|1732075331251
755295|-18000000|1732075331292
755332|-18000000|1732075331333
750087|-18000000|1732075331374
755308|-18000000|1732075331415
755179|-18000000|1732075331456
755268|-18000000|1732075331497
755326|-18000000|1732075331538
755209|-18000000|1732075331579
755367|-18000000|1732075331620
755321|-18000000|1732075331661
755319|-18000000|1732075331702
754683|-18000000|1732075331743
755228|-18000000|1732075331784
755266|-18000000|1732075331825
755308|-18000000|1732075331866
749215|-18000000|1732075331907
755201|-18000000|1732075331948
755266|-18000000|1732075331990
755274|-18000000|1732075332032
759889|-18000000|1732075332074
755375|-18000000|1732075332116
755268|-18000000|1732075332158
755253|-18000000|1732075332200
755394|-18000000|1732075332242
755235|-18000000|1732075332284
755338|-18000000|1732075332326
755274|-18000000|1732075332368
755288|-18000000|1732075332410
754919|-18000000|1732075332452
755359|-18000000|1732075332494
755237|-18000000|1732075332536
755203|-18000000|1732075332578
761252|-18000000|1732075332620
755300|-18000000|1732075332662
755291|-18000000|1732075332704
755303|-18000000|1732075332746
758318|-18000000|1732075332788
755320|-18000000|1732075332830
755148|-18000000|1732075332872
755192|-18000000|1732075332914
755333|-18000000|1732075332956
755271|-18000000|1732075332998
755203|-18000000|1732075333040
755251|-18000000|1732075333082
749931|-18000000|1732075333124
755286|-18000000|1732075333166
755303|-18000000|1732075333208
755232|-18000000|1732075333250
760196|-18000000|1732075333292
755227|-18000000|1732075333334
755193|-18000000|1732075333376
755251|-18000000|1732075333418
756500|-18000000|1732075333460
755247|-18000000|1732075333502
755280|-18000000|1732075333544
755343|-18000000|1732075333586
755275|-18000000|1732075333628
755224|-18000000|1732075333670
755228|-18000000|1732075333712
755320|-18000000|1732075333754
755274|-18000000|1732075333796
761205|-18000000|1732075333838
755302|-18000000|1732075333880
755254|-18000000|1732075333922
755137|-18000000|1732075333964
758730|-18000000|1732075334006
755273|-18000000|1732075334048
755272|-18000000|1732075334090
755368|-18000000|1732075334132
750382|-18000000|1732075334174
755303|-18000000|1732075334216
755206|-18000000|1732075334258
755306|-18000000|1732075334300
755339|-18000000|1732075334342
755259|-18000000|1732075334384
755292|-18000000|1732075334426
755261|-18000000|1732075334468
755269|-18000000|1732075334510
755900|-18000000|1732075334552
755305|-18000000|1732075334594
755163|-18000000|1732075334636
755305|-18000000|1732075334678
749164|-18000000|1732075334720
755242|-18000000|1732075334762
755233|-18000000|1732075334804
755228|-18000000|1732075334846
760905|-18000000|1732075334888
755296|-18000000|1732075334930
755227|-18000000|1732075334972
755295|-18000000|1732075335014
755289|-18000000|1732075335056
755369|-18000000|1732075335098
755255|-18000000|1732075335140
755236|-18000000|1732075335182
755283|-18000000|1732075335224
748974|-18000000|1732075335266
755296|-18000000|1732075335308
755220|-18000000|1732075335350
755245|-18000000|1732075335392
749265|-18000000|1732075335434
755317|-18000000|1732075335476
755264|-18000000|1732075335518
755237|-18000000|1732075335560
753527|-18000000|1732075335602
755275|-18000000|1732075335644
755298|-18000000|1732075335686
755253|-18000000|1732075335728
755768|-18000000|1732075335770
755252|-18000000|1732075335812
755259|-18000000|1732075335854
755217|-18000000|1732075335896
755299|-18000000|1732075335938
756598|-18000000|1732075335980
755343|-18000000|1732075336022
755301|-18000000|1732075336064
755304|-18000000|1732075336106
761240|-18000000|1732075336148
755365|-18000000|1732075336190
755289|-18000000|1732075336232
755297|-18000000|1732075336274
750599|-18000000|1732075336316
755278|-18000000|1732075336358
755265|-18000000|1732075336400
755240|-18000000|1732075336442
758248|-18000000|1732075336484
755344|-18000000|1732075336526
755178|-18000000|1732075336568
755271|-18000000|1732075336610
755257|-18000000|1732075336652
759557|-18000000|1732075336694
755335|-18000000|1732075336736
755308|-18000000|1732075336778
755288|-18000000|1732075336820
751501|-18000000|1732075336862
755310|-18000000|1732075336904
755222|-18000000|1732075336946
755294|-18000000|1732075336988
749692|-18000000|1732075337030
755314|-18000000|1732075337072
755377|-18000000|1732075337114
755308|-18000000|1732075337156
752043|-18000000|1732075337198
755349|-18000000|1732075337240
755240|-18000000|1732075337282
755403|-18000000|1732075337324
755370|-18000000|1732075337366
760383|-18000000|1732075337408
755336|-18000000|1732075337450
755232|-18000000|1732075337488
755228|-18000000|1732075337526
761214|-18000000|1732075337564
755362|-18000000|1732075337602
755307|-18000000|1732075337640
755242|-18000000|1732075337678
755212|-18000000|1732075337716
755261|-18000000|1732075337754
755329|-18000000|1732075337792
755361|-18000000|1732075337830
751560|-18000000|1732075337868
755232|-18000000|1732075337906
755261|-18000000|1732075337944
755239|-18000000|1732075337982
755209|-18000000|1732075338020
754075|-18000000|1732075338058
755347|-18000000|1732075338096
755248|-18000000|1732075338134
755311|-18000000|1732075338172
749897|-18000000|1732075338210
755241|-18000000|1732075338248
755252|-18000000|1732075338286
755308|-18000000|1732075338324
749656|-18000000|1732075338362
755320|-18000000|1732075338400
755307|-18000000|1732075338438
755327|-18000000|1732075338476
760592|-18000000|1732075338514
755280|-18000000|1732075338552
755365|-18000000|1732075338590
755225|-18000000|1732075338628
755282|-18000000|1732075338666
755001|-18000000|1732075338704
755357|-18000000|1732075338742
755213|-18000000|1732075338780
755206|-18000000|1732075338818
754149|-18000000|1732075338856
755344|-18000000|1732075338894
755366|-18000000|1732075338932
755265|-18000000|1732075338970
749353|-18000000|1732075339008
755460|-18000000|1732075339046
755304|-18000000|1732075339084
755291|-18000000|1732075339122
761095|-18000000|1732075339160
755231|-18000000|1732075339198
755278|-18000000|1732075339236
755242|-18000000|1732075339274
755299|-18000000|1732075339312
755220|-18000000|1732075339350
755347|-18000000|1732075339388
755222|-18000000|1732075339426
749702|-18000000|1732075339464
755318|-18000000|1732075339502
755305|-18000000|1732075339540
755261|-18000000|1732075339578
760810|-18000000|1732075339616
755291|-18000000|1732075339654
755274|-18000000|1732075339692
755209|-18000000|1732075339730
751048|-18000000|1732075339768
755290|-18000000|1732075339806
755121|-18000000|1732075339844
755264|-18000000|1732075339882
755220|-18000000|1732075339920
755295|-18000000|1732075339958
755275|-18000000|1732075339996
755313|-18000000|1732075340034
755266|-18000000|1732075340072
754597|-18000000|1732075340110
755403|-18000000|1732075340148
755304|-18000000|1732075340186
755323|-18000000|1732075340224
753171|-18000000|1732075340262
755201|-18000000|1732075340300
755344|-18000000|1732075340338
755266|-18000000|1732075340376
750186|-18000000|1732075340414
755449|-18000000|1732075340452
755360|-18000000|1732075340490
755233|-18000000|1732075340528
755281|-18000000|1732075340566
755348|-18000000|1732075340604
755279|-18000000|1732075340642
755273|-18000000|1732075340680
755297|-18000000|1732075340718
749603|-18000000|1732075340756
755278|-18000000|1732075340794
755254|-18000000|1732075340832
755315|-18000000|1732075340870
757149|-18000000|1732075340908
755315|-18000000|1732075340946
755269|-18000000|1732075340984
755317|-18000000|1732075341022
761148|-18000000|1732075341060
755314|-18000000|1732075341098
755386|-18000000|1732075341136
755359|-18000000|1732075341174
755311|-18000000|1732075341212
755251|-18000000|1732075341250
755410|-18000000|1732075341288
755288|-18000000|1732075341326
755308|-18000000|1732075341364
753250|-18000000|1732075341402
755332|-18000000|1732075341440
755306|-18000000|1732075341478
755325|-18000000|1732075341516
752677|-18000000|1732075341554
755321|-18000000|1732075341592
755312|-18000000|1732075341630
755402|-18000000|1732075341668
750693|-18000000|1732075341706
755254|-18000000|1732075341744
755426|-18000000|1732075341782
755351|-18000000|1732075341820
755351|-18000000|1732075341858
755407|-18000000|1732075341896
755400|-18000000|1732075341934
755325|-18000000|1732075341972
755501|-18000000|1732075342010
759034|-18000000|1732075342048
755527|-18000000|1732075342086
755407|-18000000|1732075342124
755394|-18000000|1732075342162
750479|-18000000|1732075342200
755313|-18000000|1732075342238
755404|-18000000|1732075342276
755441|-18000000|1732075342314
749907|-18000000|1732075342352
755455|-18000000|1732075342390
755451|-18000000|1732075342428
755497|-18000000|1732075342466
755451|-18000000|1732075342504
755443|-18000000|1732075342542
755364|-18000000|1732075342580
755396|-18000000|1732075342618
755454|-18000000|1732075342656
750544|-18000000|1732075342695
755430|-18000000|1732075342734
755404|-18000000|1732075342773
755444|-18000000|1732075342812
753291|-18000000|1732075342851
755430|-18000000|1732075342890
755399|-18000000|1732075342929
755339|-18000000|1732075342968
749943|-18000000|1732075343007
755485|-18000000|1732075343046
755410|-18000000|1732075343085
755409|-18000000|1732075343124
755475|-18000000|1732075343163
755428|-18000000|1732075343202
755409|-18000000|1732075343241
755436|-18000000|1732075343280
755383|-18000000|1732075343319
753388|-18000000|1732075343358
755444|-18000000|1732075343397
755424|-18000000|1732075343436
755384|-18000000|1732075343475
754507|-18000000|1732075343514
755466|-18000000|1732075343553
755473|-18000000|1732075343592
755484|-18000000|1732075343631
752508|-18000000|1732075343670
755489|-18000000|1732075343709
755426|-18000000|1732075343748
755505|-18000000|1732075343787
755467|-18000000|1732075343826
755473|-18000000|1732075343865
755503|-18000000|1732075343904
755376|-18000000|1732075343943
755430|-18000000|1732075343982
750369|-18000000|1732075344021
755347|-18000000|1732075344060
755460|-18000000|1732075344099
755516|-18000000|1732075344138
753879|-18000000|1732075344177
755443|-18000000|1732075344216
755430|-18000000|1732075344255
755427|-18000000|1732075344294
753846|-18000000|1732075344333
755534|-18000000|1732075344372
755385|-18000000|1732075344411
755612|-18000000|1732075344450
755521|-18000000|1732075344489
755489|-18000000|1732075344528
755513|-18000000|1732075344567
755505|-18000000|1732075344606
755528|-18000000|1732075344645
749442|-18000000|1732075344684
755535|-18000000|1732075344723
755480|-18000000|1732075344762
755493|-18000000|1732075344801
749569|-18000000|1732075344840
755525|-18000000|1732075344879
755530|-18000000|1732075344918
755474|-18000000|1732075344957
760851|-18000000|1732075344996
755539|-18000000|1732075345035
755504|-18000000|1732075345074
755551|-18000000|1732075345113
755552|-18000000|1732075345152
755531|-18000000|1732075345191
755592|-18000000|1732075345230
755492|-18000000|1732075345269
755544|-18000000|1732075345308
749428|-18000000|1732075345347
755563|-18000000|1732075345386
755488|-18000000|1732075345425
755529|-18000000|1732075345464
761410|-18000000|1732075345503
755632|-18000000|1732075345542
755479|-18000000|1732075345581
755344|-18000000|1732075345620
750007|-18000000|1732075345659
755568|-18000000|1732075345698
755424|-18000000|1732075345737
755551|-18000000|1732075345776
755650|-18000000|1732075345815
755592|-18000000|1732075345854
755511|-18000000|1732075345893
755527|-18000000|1732075345932
755643|-18000000|1732075345971
752410|-18000000|1732075346010
755565|-18000000|1732075346049
755585|-18000000|1732075346088
755559|-18000000|1732075346127
761180|-18000000|1732075346166
755604|-18000000|1732075346205
755473|-18000000|1732075346244
755513|-18000000|1732075346283
755584|-18000000|1732075346322
755566|-18000000|1732075346361
755508|-18000000|1732075346400
755527|-18000000|1732075346439
755593|-18000000|1732075346478
755501|-18000000|1732075346517
755591|-18000000|1732075346556
755579|-18000000|1732075346595
761559|-18000000|1732075346634
755582|-18000000|1732075346673
755532|-18000000|1732075346712
755637|-18000000|1732075346751
757299|-18000000|1732075346790
755623|-18000000|1732075346829
755845|-18000000|1732075346868
755607|-18000000|1732075346907
749619|-18000000|1732075346946
755558|-18000000|1732075346985
755611|-18000000|1732075347024
755646|-18000000|1732075347063
755639|-18000000|1732075347102
755666|-18000000|1732075347141
755704|-18000000|1732075347180
755649|-18000000|1732075347219
755657|-18000000|1732075347258
761374|-18000000|1732075347297
755610|-18000000|1732075347336
755621|-18000000|1732075347375
755593|-18000000|1732075347414
749997|-18000000|1732075347453
755621|-18000000|1732075347492
755595|-18000000|1732075347531
755719|-18000000|1732075347570
750075|-18000000|1732075347609
755583|-18000000|1732075347648
755639|-18000000|1732075347687
755673|-18000000|1732075347726
755682|-18000000|1732075347765
755612|-18000000|1732075347804
755669|-18000000|1732075347843
755605|-18000000|1732075347882
755736|-18000000|1732075347921
761448|-18000000|1732075347960
755650|-18000000|1732075347999
755692|-18000000|1732075348038
755660|-18000000|1732075348077
751354|-18000000|1732075348116
755700|-18000000|1732075348155
755635|-18000000|1732075348194
755688|-18000000|1732075348233
755733|-18000000|1732075348272
755698|-18000000|1732075348311
755588|-18000000|1732075348350
755620|-18000000|1732075348389
755613|-18000000|1732075348428
755661|-18000000|1732075348467
755614|-18000000|1732075348506
755646|-18000000|1732075348545
755620|-18000000|1732075348584
750394|-18000000|1732075348623
755644|-18000000|1732075348662
755622|-18000000|1732075348701
755587|-18000000|1732075348740
755743|-18000000|1732075348779
755709|-18000000|1732075348818
755662|-18000000|1732075348857
755725|-18000000|1732075348896
756061|-18000000|1732075348935
755654|-18000000|1732075348974
755648|-18000000|1732075349013
755589|-18000000|1732075349053
755659|-18000000|1732075349093
755745|-18000000|1732075349133
755661|-18000000|1732075349173
755653|-18000000|1732075349213
755735|-18000000|1732075349253
758820|-18000000|1732075349293
755661|-18000000|1732075349333
755667|-18000000|1732075349373
755730|-18000000|1732075349413
754497|-18000000|1732075349453
755742|-18000000|1732075349493
755613|-18000000|1732075349533
755663|-18000000|1732075349573
753009|-18000000|1732075349613
755805|-18000000|1732075349653
755619|-18000000|1732075349693
755706|-18000000|1732075349733
755743|-18000000|1732075349773
755568|-18000000|1732075349813
755709|-18000000|1732075349853
755656|-18000000|1732075349893
755751|-18000000|1732075349933
760915|-18000000|1732075349973
755692|-18000000|1732075350013
755655|-18000000|1732075350053
755650|-18000000|1732075350093
753396|-18000000|1732075350133
755770|-18000000|1732075350173
755715|-18000000|1732075350213
755639|-18000000|1732075350253
749743|-18000000|1732075350293
755631|-18000000|1732075350333
755694|-18000000|1732075350373
755710|-18000000|1732075350413
755667|-18000000|1732075350453
755657|-18000000|1732075350493
755752|-18000000|1732075350533
755749|-18000000|1732075350573
755700|-18000000|1732075350613
749694|-18000000|1732075350653
755706|-18000000|1732075350693
755728|-18000000|1732075350733
755743|-18000000|1732075350773
761311|-18000000|1732075350813
755622|-18000000|1732075350853
755654|-18000000|1732075350893
755651|-18000000|1732075350933
760545|-18000000|1732075350973
755731|-18000000|1732075351013
755795|-18000000|1732075351053
755688|-18000000|1732075351093
756038|-18000000|1732075351133
755687|-18000000|1732075351173
755784|-18000000|1732075351213
755705|-18000000|1732075351253
755727|-18000000|1732075351293
759167|-18000000|1732075351333
755621|-18000000|1732075351373
755695|-18000000|1732075351413
755664|-18000000|1732075351453
752308|-18000000|1732075351493
755718|-18000000|1732075351533
755698|-18000000|1732075351573
755738|-18000000|1732075351613
757625|-18000000|1732075351653
755783|-18000000|1732075351693
755695|-18000000|1732075351733
755742|-18000000|1732075351773
758743|-18000000|1732075351813
755714|-18000000|1732075351853
755655|-18000000|1732075351893
755781|-18000000|1732075351933
750538|-18000000|1732075351973
755670|-18000000|1732075352013
755742|-18000000|1732075352053
755821|-18000000|1732075352093
762073|-18000000|1732075352133
755741|-18000000|1732075352173
755745|-18000000|1732075352213
755762|-18000000|1732075352253
754747|-18000000|1732075352293
755718|-18000000|1732075352333
755656|-18000000|1732075352373
755745|-18000000|1732075352413
758325|-18000000|1732075352453
755722|-18000000|1732075352493
755738|-18000000|1732075352533
755720|-18000000|1732075352573
755767|-18000000|1732075352613
752949|-18000000|1732075352653
755769|-18000000|1732075352693
755774|-18000000|1732075352733
755720|-18000000|1732075352773
761265|-18000000|1732075352813
755793|-18000000|1732075352853
755737|-18000000|1732075352893
755691|-18000000|1732075352933
755072|-18000000|1732075352973
755674|-18000000|1732075353013
755652|-18000000|1732075353053
755742|-18000000|1732075353093
753110|-18000000|1732075353133
755736|-18000000|1732075353173
755648|-18000000|1732075353213
755737|-18000000|1732075353253
755582|-18000000|1732075353293
752804|-18000000|1732075353333
755755|-18000000|1732075353373
755783|-18000000|1732075353413
755706|-18000000|1732075353453
761808|-18000000|1732075353493
755690|-18000000|1732075353533
755829|-18000000|1732075353573
755699|-18000000|1732075353613
761355|-18000000|1732075353653
755802|-18000000|1732075353693
755634|-18000000|1732075353733
755794|-18000000|1732075353773
755513|-18000000|1732075353813
755798|-18000000|1732075353853
755758|-18000000|1732075353893
755686|-18000000|1732075353933
755705|-18000000|1732075353973
761292|-18000000|1732075354013
755696|-18000000|1732075354053
755758|-18000000|1732075354093
755710|-18000000|1732075354133
749758|-18000000|1732075354173
755802|-18000000|1732075354213
755766|-18000000|1732075354253
755653|-18000000|1732075354293
750042|-18000000|1732075354333
755769|-18000000|1732075354373
755736|-18000000|1732075354413
755746|-18000000|1732075354453
761471|-18000000|1732075354493
755880|-18000000|1732075354533
755730|-18000000|1732075354573
755748|-18000000|1732075354613
755709|-18000000|1732075354653
755174|-18000000|1732075354693
755771|-18000000|1732075354733
755742|-18000000|1732075354773
755703|-18000000|1732075354813
761849|-18000000|1732075354853
755737|-18000000|1732075354893
755726|-18000000|1732075354933
755734|-18000000|1732075354973
749853|-18000000|1732075355013
755835|-18000000|1732075355053
755743|-18000000|1732075355093
755724|-18000000|1732075355133
760517|-18000000|1732075355173
755725|-18000000|1732075355213
755770|-18000000|1732075355253
755789|-18000000|1732075355293
755755|-18000000|1732075355333
755797|-18000000|1732075355373
755712|-18000000|1732075355413
755839|-18000000|1732075355453
755742|-18000000|1732075355493
761926|-18000000|1732075355533
755808|-18000000|1732075355573
755770|-18000000|1732075355613
755733|-18000000|1732075355653
754876|-18000000|1732075355693
755665|-18000000|1732075355733
